Timestamp (ms),X: (m/s^2),Y: (m/s^2),Z: (m/s^2)
232965,1.694179,9.358664,0.691550, 
233044,2.184725,9.150480,0.681979, 
233123,2.837989,8.968619,0.655657, 
233202,3.058136,9.420879,0.536011, 
233281,2.715951,9.389771,0.684372, 
233360,2.316335,9.408915,0.827946, 
233440,1.469246,10.607761,1.962185, 
233520,-1.775538,9.703242,-0.847089, 
233600,-0.198611,10.339756,1.206026, 
233680,-1.335243,9.451987,1.177311, 
233760,-2.785345,7.398872,1.801860, 
233839,-1.038522,10.256004,1.268241, 
233919,-0.696336,8.994942,1.754002, 
233999,-1.251491,8.851367,1.667857, 
234078,-1.512318,9.909033,2.275656, 
234157,-0.610192,10.464187,2.589127, 
234237,-0.098109,10.122002,3.723365, 
234316,-1.072023,10.552725,1.651107, 
234395,0.804017,6.216775,0.265613, 
234474,-0.007179,10.964305,2.993528, 
234554,-1.210811,8.080851,2.122509, 
234633,-0.043072,8.066493,2.636985, 
234712,-0.145967,9.308413,3.170603, 
234791,0.014357,8.734115,1.619999, 
234871,-0.658050,10.756122,3.369215, 
234951,0.351757,11.526638,2.208654, 
235030,-2.986349,7.494588,0.229719, 
235110,0.569512,9.518989,0.964342, 
235189,-1.813824,11.447672,1.682214, 
235268,-2.301978,5.654442,1.722894, 
235347,-1.438138,10.646049,1.390280, 
235427,-0.818375,9.303627,1.773145, 
235506,0.536011,11.127023,2.778166, 
235585,-1.538640,10.189003,1.306528, 
235665,0.081359,6.927469,0.124431, 
235745,-0.263220,12.593875,0.500118, 
235824,-0.562333,8.035385,1.404637, 
235903,-0.090931,10.574261,1.677429, 
235983,0.095716,9.049978,1.361565, 
236062,0.806410,9.676920,0.244077, 
236141,0.416366,9.485488,1.344814, 
236220,0.911698,9.353878,0.251255, 
236300,-3.259141,11.998041,0.174682, 
236379,-2.928920,6.685785,-0.689158, 
236458,-2.536483,12.500552,0.928448, 
236538,-3.804724,7.858310,1.521890, 
236618,-2.435980,9.593168,0.217755, 
236697,-2.385729,9.284483,1.476424, 
236776,-1.560176,9.124159,1.691786, 
236856,-1.624785,9.045193,1.809039, 
236935,-0.753766,9.373021,1.844932, 
237014,-0.150753,8.963834,1.923898, 
237093,1.663071,9.241411,1.940648, 
237173,1.581712,10.445044,2.184725, 
237252,1.447709,8.858545,1.258670, 
237332,1.617606,9.535739,1.940648, 
237411,2.050722,9.291662,0.859054, 
237491,0.729837,10.772872,1.201240, 
237570,1.299349,9.839638,1.899969, 
237649,0.141182,8.987762,1.943041, 
237729,-1.265848,8.844189,1.737251, 
237808,-0.131610,8.875296,2.062687, 
237887,-1.311314,9.418487,2.153617, 
237966,-0.811196,10.191396,3.146674, 
238046,-1.115095,8.056922,2.380944, 
238125,-1.730072,9.179195,2.603484, 
238205,-0.059823,10.373257,1.201240, 
238284,-0.662836,9.440022,1.596070, 
238364,-1.976542,9.633848,2.050722, 
238443,-1.842539,9.432844,1.794681, 
238522,-1.328064,9.471130,1.710929, 
238602,-1.672643,9.473523,1.832968, 
238681,-1.715715,9.820495,2.055508, 
238760,-1.457281,9.071514,2.526911, 
238839,-0.679586,9.210303,2.469481, 
238919,-0.366115,8.963834,2.330693, 
238999,-0.067001,9.167231,2.620234, 
239078,0.268006,9.322770,2.699200, 
239157,0.399616,9.090658,2.811667, 
239237,0.409187,9.181588,2.672878, 
239316,0.299114,9.507024,2.318728, 
239395,0.291935,9.317985,2.172760, 
239475,0.394830,9.428058,2.373765, 
239554,0.617370,9.502238,2.471874, 
239633,0.658050,9.401736,2.294799, 
239712,0.660443,9.408915,2.376158, 
239792,0.583870,9.564454,2.512553, 
239872,0.485760,9.239018,2.483839, 
239951,0.698729,9.373021,2.502982, 
240031,0.425938,9.396950,2.534090, 
240110,0.378079,9.291662,2.502982, 
240189,0.500118,9.262947,2.766202, 
240268,0.143574,9.590775,2.665700, 
240348,0.114860,9.186374,2.828417, 
240427,0.047858,9.186374,2.680057, 
240506,-0.004786,9.231839,2.794917, 
240585,0.387651,9.207911,2.641771, 
240665,0.356543,9.248590,2.840382, 
240745,0.387651,9.301233,2.735094, 
240824,0.325435,9.313198,2.775773, 
240904,0.397223,9.260554,2.847561, 
240983,0.193826,9.250982,2.713558, 
241062,0.102895,9.270126,2.770988, 
241141,-0.019143,9.253376,2.735094, 
241221,0.028715,9.332341,2.708772, 
241300,-0.047858,9.289269,2.732701, 
241379,-0.083752,9.411307,2.802095, 
241458,-0.150753,9.411307,2.450338, 
241538,-0.129217,9.339520,2.830810, 
241618,-0.102895,9.246197,2.885847, 
241697,-0.071787,9.239018,2.787738, 
241777,-0.019143,9.241411,2.708772, 
241856,-0.047858,9.260554,2.826025, 
241935,-0.191433,9.205518,2.792524, 
242014,-0.069394,9.195946,2.505375, 
242094,-0.105288,9.308413,2.962420, 
242173,0.045465,9.437630,2.797310, 
242252,-0.019143,9.521381,2.854739, 
242332,-0.033501,9.291662,2.608270, 
242412,0.227326,9.301233,2.613056, 
242491,0.447474,9.195946,2.775773, 
242570,-0.483367,9.325163,2.364193, 
242650,0.236898,9.533346,1.804253, 
242729,-0.658050,9.375414,1.969363, 
242808,-0.306292,9.282090,2.610663, 
242887,0.701122,10.088501,2.435980, 
242967,-0.476189,9.090658,1.854504, 
243046,0.174682,9.296448,2.591519, 
243125,0.160325,9.435237,2.357014, 
243205,0.062216,9.406522,2.474267, 
243285,-0.031108,9.267733,2.708772, 
243364,0.093323,9.334735,2.385729, 
243443,0.196218,9.440022,2.254119, 
243522,-0.100502,9.341913,2.675271, 
243602,0.196218,9.401736,2.273263, 
243681,0.157932,9.152873,2.380944, 
243760,-0.057430,9.518989,2.244548, 
243840,0.102895,9.540524,2.275656, 
243919,-0.184254,9.296448,2.543661, 
243999,-0.425938,9.363449,2.572376, 
244078,0.502511,9.507024,2.440766, 
244158,0.007179,9.401736,2.481446, 
244237,0.141182,9.253376,2.388122, 
244316,0.172289,9.315591,2.598698, 
244395,-0.124431,9.267733,2.782952, 
244475,-0.047858,9.248590,2.684843, 
244554,-0.256041,9.315591,2.658521, 
244633,-0.622156,9.188767,2.656128, 
244712,-0.827946,9.131337,2.443159, 
244792,-1.127060,9.291662,2.081830, 
244872,0.603013,8.714972,1.806646, 
244951,0.744194,10.260790,2.715951, 
245031,-0.509689,10.366077,2.682450, 
245110,0.370901,8.650363,2.160796, 
245189,1.000236,9.265340,2.558019, 
245268,0.569512,9.317985,2.230190, 
245348,1.136631,9.925783,1.969363, 
245427,-0.112467,12.708735,0.380472, 
245506,-2.340264,8.202888,-0.413973, 
245585,-1.009807,8.899225,0.449867, 
245665,-0.787267,11.258633,0.143574, 
245745,-1.275420,7.860703,0.775302, 
245824,-1.002628,9.987998,0.918877, 
245904,-1.414209,9.148088,0.701122, 
245983,-1.476424,9.684099,1.225169, 
246062,-1.658285,9.227054,1.186882, 
246141,-1.538640,9.483095,1.351993, 
246221,-1.112702,9.310805,1.115095, 
246300,-0.205790,8.839402,1.103131, 
246379,0.892555,10.059786,1.746823, 
246458,-0.134003,9.667349,2.998314, 
246538,1.294563,11.454851,2.849954, 
246618,0.394830,8.609683,1.792288, 
246697,0.815982,9.396950,2.096188, 
246777,1.347207,9.294055,2.577162, 
246856,0.952377,9.169623,1.708536, 
246935,1.036129,10.138752,1.959792, 
247014,0.210576,8.478073,1.162953, 
247094,-0.098109,9.803744,2.122509, 
247173,-0.737016,9.978427,2.299585, 
247252,-0.445081,8.042564,1.301742, 
247332,-0.430723,9.746315,2.357014, 
247412,-1.048094,9.231839,2.534090, 
247491,-1.074416,9.322770,2.278049, 
247570,-0.813589,9.782208,2.438373, 
247650,-1.112702,9.162445,2.787738, 
247729,-1.249098,9.437630,2.488624, 
247808,-1.208419,8.832224,2.179939, 
247887,-0.792053,9.557275,2.550840, 
247967,-0.368508,9.303627,2.390515, 
248046,-0.038287,9.124159,2.560412, 
248125,0.198611,9.480701,2.567590, 
248205,0.358936,9.195946,2.845168, 
248285,0.430723,9.325163,2.625020, 
248364,0.488153,9.334735,2.481446, 
248443,0.413973,9.339520,2.550840, 
248522,0.318257,9.327556,2.510161, 
248602,0.394830,9.353878,2.577162, 
248681,0.423545,9.346699,2.352229, 
248760,0.258434,9.365842,2.445552, 
248840,0.327828,9.392164,2.510161, 
248919,0.318257,9.294055,2.512553, 
248999,0.258434,9.437630,2.809274, 
249078,0.143574,9.399343,2.550840, 
249158,0.105288,9.195946,2.651342, 
249237,0.129217,9.294055,2.938491, 
249316,0.220148,9.270126,2.684843, 
249395,0.181861,9.298841,2.581948, 
249475,0.234505,9.404129,2.610663, 
249554,0.282363,9.396950,2.555626, 
249633,0.112467,9.382592,2.593912, 
249713,0.021536,9.329948,2.756630, 
249792,0.019143,9.375414,2.656128, 
249872,0.004786,9.289269,2.782952, 
249951,-0.100502,9.303627,2.577162, 
250031,-0.232112,9.298841,2.885847, 
250110,-0.138789,9.289269,2.766202, 
250189,-0.078966,9.191160,2.744666, 
250268,-0.069394,9.262947,2.888240, 
250348,-0.016750,9.274912,2.938491, 
250427,-0.078966,9.231839,2.881061, 
250506,-0.126824,9.241411,2.821239, 
250586,-0.040679,9.262947,2.804488, 
250666,-0.050251,9.212696,2.895419, 
250745,0.023929,9.298841,2.883454, 
250824,0.090931,9.279697,2.821239, 
250904,0.167504,9.308413,2.871490, 
250983,0.148360,9.274912,2.854739, 
251062,0.143574,9.260554,2.718343, 
251141,0.086145,9.356271,2.670485, 
251221,0.000000,9.382592,2.893026, 
251300,-0.004786,9.337128,2.684843, 
251379,-0.081359,9.341913,2.648949, 
251458,-0.007179,9.344306,2.766202, 
251538,0.126824,9.301233,2.510161, 
251618,-0.078966,9.373021,2.526911, 
251697,-0.038287,9.317985,2.610663, 
251776,-0.165111,9.392164,2.615448, 
251856,-0.184254,9.322770,2.610663, 
251935,-0.040679,9.346699,2.345050, 
252014,-0.050251,9.420879,2.543661, 
252094,0.004786,9.344306,2.464695, 
252173,-0.033501,9.344306,2.445552, 
252252,-0.019143,9.389771,2.586734, 
252332,-0.016750,9.337128,2.510161, 
252412,0.007179,9.377807,2.462302, 
252491,-0.040679,9.334735,2.543661, 
252570,-0.050251,9.325163,2.464695, 
252649,0.007179,9.401736,2.404873, 
252729,0.028715,9.315591,2.479053, 
252808,-0.078966,9.418487,2.550840, 
252887,-0.102895,9.389771,2.548447, 
252966,-0.138789,9.320377,2.634592, 
253046,-0.076573,9.262947,2.550840, 
253125,-0.114860,9.301233,2.866704, 
253205,-0.114860,9.265340,2.701593, 
253285,-0.110074,9.401736,2.692022, 
253364,-0.110074,9.313198,2.766202, 
253443,-0.059823,9.296448,2.699200, 
253522,-0.122038,9.265340,2.574769, 
253602,-0.081359,9.346699,2.725522, 
253681,-0.021536,9.306020,2.699200, 
253760,-0.078966,9.349092,2.692022, 
253839,0.004786,9.346699,2.792524, 
253919,-0.019143,9.277305,2.751844, 
253999,-0.043072,9.301233,2.706379, 
254078,0.028715,9.325163,2.629806, 
254158,-0.035894,9.375414,2.663307, 
254237,-0.040679,9.396950,2.689629, 
254316,0.016750,9.361056,2.845168, 
254395,-0.074180,9.375414,2.536483, 
254475,-0.088538,9.351485,2.806881, 
254554,-0.074180,9.291662,2.766202, 
254633,-0.014357,9.279697,2.646556, 
254712,-0.071787,9.306020,2.792524, 
254792,-0.117252,9.222268,2.821239, 
254872,-0.090931,9.260554,2.742273, 
254951,-0.117252,9.250982,2.830810, 
255031,-0.040679,9.234232,2.904990, 
255110,-0.114860,9.229446,2.871490, 
255189,-0.153146,9.301233,2.821239, 
255268,-0.134003,9.160052,2.737487, 
255348,-0.220148,9.341913,2.675271, 
255427,-0.160325,9.306020,2.670485, 
255506,-0.141182,9.294055,2.639378, 
255585,-0.165111,9.334735,2.694415, 
255665,-0.169896,9.325163,2.660914, 
255745,-0.181861,9.339520,2.694415, 
255824,-0.119645,9.294055,2.675271, 
255904,-0.169896,9.356271,2.737487, 
255983,-0.126824,9.310805,2.632199, 
256062,-0.124431,9.298841,2.495803, 
256141,-0.191433,9.317985,2.699200, 
256221,-0.177075,9.320377,2.605877, 
256300,-0.196218,9.356271,2.651342, 
256379,-0.222540,9.289269,2.636985, 
256458,-0.201004,9.298841,2.605877, 
256538,-0.270399,9.303627,2.581948, 
256618,-0.236898,9.351485,2.447945, 
256697,-0.236898,9.346699,2.498196, 
256776,-0.208183,9.387379,2.625020, 
256856,-0.179468,9.322770,2.586734, 
256935,-0.134003,9.404129,2.290013, 
257014,-0.117252,9.447201,2.330693, 
257094,-0.086145,9.361056,2.364193, 
257173,-0.081359,9.425665,2.342657, 
257252,-0.102895,9.428058,2.517339, 
257332,-0.067001,9.377807,2.546054, 
257412,-0.167504,9.310805,2.569983, 
257491,-0.157932,9.291662,2.715951, 
257570,-0.107681,9.327556,2.727915, 
257649,-0.167504,9.241411,2.804488, 
257729,-0.150753,9.387379,2.859525, 
257808,-0.153146,9.248590,2.701593, 
257887,-0.145967,9.289269,2.878669, 
257967,-0.086145,9.148088,2.967206, 
258046,-0.093323,9.162445,2.916955, 
258125,-0.160325,9.227054,3.050958, 
258205,-0.179468,9.294055,2.974385, 
258285,-0.110074,9.325163,2.948063, 
258364,-0.090931,9.191160,2.837989, 
258443,-0.131610,9.239018,3.031815, 
258523,-0.203397,9.169623,3.211283, 
258602,-0.129217,9.136123,2.960027, 
258681,-0.215362,9.169623,2.912169, 
258760,-0.227326,9.169623,3.139495, 
258840,-0.229719,9.143302,2.998314, 
258919,-0.306292,9.169623,3.027029, 
258999,-0.251255,9.231839,3.043779, 
259078,-0.323043,9.133730,3.065315, 
259158,-0.488153,9.344306,3.244783, 
259237,-1.325671,8.746079,2.672878, 
259316,-0.737016,9.217482,3.424252, 
259396,-1.368743,9.358664,2.854739, 
259475,-0.157932,8.475680,1.966970, 
259554,0.835125,9.813316,3.259141, 
259633,-0.184254,10.227289,3.618077, 
259713,0.260827,7.922919,2.742273, 
259792,1.342421,9.411307,3.189746, 
259872,0.363722,8.604897,2.955241, 
259951,0.643692,9.306020,3.259141, 
260031,0.105288,11.337599,4.125373, 
260110,1.306528,11.026521,1.653499, 
260189,-1.375922,9.588383,1.009807, 
260269,-1.933470,8.310570,0.069394, 
260348,-0.643692,10.679549,0.804017, 
260427,-0.411580,6.295741,2.450338, 
260506,-1.531461,9.026050,1.878433, 
260586,-1.088773,8.157424,2.708772, 
260666,-1.093559,10.045428,3.689864, 
260745,-0.234505,10.401972,3.096423, 
260824,0.555155,13.701792,5.003571, 
260904,0.437902,7.609448,-2.112938, 
260983,-0.167504,10.007142,0.997843, 
261062,-2.258905,9.195946,2.744666, 
261142,0.265613,6.393850,3.110780, 
261221,1.095952,8.439787,3.395537, 
261300,-0.346972,8.600112,4.465167, 
261379,-0.765731,11.229918,5.051429, 
261459,-3.094030,12.703949,-3.402715, 
261539,-0.134003,7.937276,1.986114, 
261618,0.693943,9.112194,1.579319, 
261697,-1.478817,9.069121,1.421387, 
261777,-0.832732,8.693435,2.864311, 
261856,-0.189040,8.820259,2.888240, 
261935,0.708301,11.775500,4.285698, 
262014,0.409187,11.000198,1.337636, 
262094,0.119645,6.645106,-0.385258, 
262173,-0.985878,9.301233,0.528833, 
262252,-0.428331,7.602269,2.682450, 
262332,1.268241,8.475680,2.412051, 
262412,0.279970,8.607290,2.175153, 
262491,0.260827,11.734821,2.385729, 
262570,-3.129924,15.072928,-2.081830, 
262650,0.485760,7.365371,0.227326, 
262729,-0.509689,9.483095,1.792288, 
262808,-1.995685,7.633377,2.194297, 
262887,-1.897576,8.738900,3.141888, 
262967,-0.425938,8.324927,2.175153, 
263046,-1.600855,10.471366,2.849954, 
263125,0.854268,13.223210,0.653264, 
263205,1.404637,7.126081,1.280206, 
263285,-1.284992,8.279462,0.818375, 
263364,-0.253648,8.734115,1.966970, 
263443,1.756395,7.961205,1.600855, 
263523,-0.134003,8.959048,2.589127, 
263602,0.646085,10.452223,2.148831, 
263681,-3.318964,15.434258,1.146203, 
263760,-0.497725,6.731250,-0.193826, 
263840,-0.327828,9.791780,1.028950, 
263919,-1.289778,7.602269,1.679821, 
263999,-1.277813,8.511574,2.424016, 
264078,0.014357,8.155031,2.555626, 
264158,-0.480975,10.796802,3.287856, 
264237,2.273263,12.512516,-0.423545, 
264316,1.933470,10.847053,1.014593, 
264396,-1.340029,9.798959,0.485760, 
264475,1.564962,7.714736,0.136396, 
264554,0.653264,11.703713,0.751373, 
264633,0.713087,8.432608,0.610192, 
264713,1.213204,11.926254,0.595834, 
264792,0.220148,8.320142,1.371136, 
264872,0.600620,10.155502,1.581712, 
264951,-0.418759,8.674292,1.880826, 
265031,-0.162718,9.339520,2.103366, 
265110,-0.265613,9.313198,2.074651, 
265189,-0.272792,9.112194,1.957399, 
265269,-0.088538,9.344306,2.313942, 
265348,-0.050251,9.495059,2.658521, 
265427,0.540797,9.633848,2.421623, 
265506,0.076573,9.200731,2.357014, 
265586,-0.198611,9.327556,2.151224, 
265666,-0.167504,9.437630,2.273263, 
265745,-0.370901,9.485488,2.268477, 
265824,-0.145967,9.416093,2.273263, 
265904,-0.031108,9.442415,2.404873, 
265983,-0.064609,9.437630,2.323514, 
266062,0.100502,9.382592,2.187118, 
266142,0.016750,9.377807,2.208654, 
266221,-0.083752,9.325163,2.270870, 
266300,0.019143,9.581204,2.227798, 
266379,-0.081359,9.509417,2.077044, 
266459,-0.248862,9.480701,2.065080, 
266539,0.205790,9.461558,2.093795, 
266618,-0.136396,9.322770,2.335478, 
266697,-0.088538,9.609919,2.593912, 
266777,-0.500118,9.191160,2.641771, 
266856,-0.045465,9.459166,2.541268, 
266935,-0.313471,9.006907,2.857132, 
267015,-0.457045,9.162445,2.816453, 
267094,0.023929,9.179195,2.447945, 
267173,-0.466617,9.688885,2.634592, 
267252,-0.215362,9.203125,2.531697, 
267332,-0.093323,9.176803,2.849954, 
267412,-0.114860,9.361056,2.763809, 
267491,-0.330221,9.368236,2.309156, 
267570,-0.524047,9.839638,2.464695, 
267650,-0.323043,9.073908,2.486232, 
267729,0.107681,9.179195,2.718343, 
267808,-0.586262,9.248590,2.438373, 
267888,-0.306292,9.454380,2.462302, 
267967,-0.880590,9.691278,2.833203, 
268046,-0.327828,9.076301,2.605877, 
268125,-0.088538,9.174410,2.883454, 
268205,-0.406794,9.308413,2.565197, 
268285,-0.392437,9.377807,2.357014, 
268364,-0.131610,9.593168,2.866704, 
268443,-0.126824,9.042800,2.739880, 
268523,-0.033501,9.329948,2.663307, 
268602,-0.313471,9.131337,2.603484, 
268681,-0.047858,9.430450,2.412051, 
268761,0.011965,9.542917,2.510161, 
268840,-0.550369,9.334735,2.732701, 
268919,-0.093323,9.212696,2.636985, 
268999,-0.019143,9.294055,2.493410, 
269079,0.057430,9.380199,2.526911, 
269158,-0.122038,9.325163,2.648949, 
269237,-0.507297,9.384986,2.424016, 
269316,-0.569512,9.485488,2.744666, 
269396,-0.074180,9.373021,2.189511, 
269475,-1.024165,8.088029,2.383337, 
269554,-1.430959,10.361292,3.412287, 
269634,-0.282363,9.363449,2.715951, 
269713,-0.631728,8.714972,2.189511, 
269792,-1.139024,9.174410,1.375922, 
269872,-0.902126,9.183981,0.851875, 
269952,1.438138,9.466345,1.024165, 
270031,1.507532,10.583833,0.794446, 
270110,0.768124,9.791780,1.232348, 
270189,1.555390,9.329948,0.708301, 
270269,0.454653,9.609919,0.698729, 
270348,0.224933,9.483095,0.564726, 
270427,-0.306292,11.253847,-0.081359, 
270506,-1.636749,9.487881,1.375922, 
270586,-0.861447,9.712814,0.966735, 
270666,-1.526675,9.083479,1.923898, 
270745,-1.342421,9.674527,1.435745, 
270825,-1.629570,9.755886,0.916484, 
270904,-1.904755,9.987998,1.495568, 
270983,0.614977,9.277305,1.730072, 
271062,1.366351,9.052371,1.983721, 
271142,0.500118,9.684099,1.773145, 
271221,0.981092,10.035856,2.591519, 
271300,1.411816,8.801116,2.330693, 
271379,0.442688,9.191160,2.720737, 
271459,0.772909,9.164838,2.354622, 
271539,0.279970,9.763065,2.045936, 
271618,-0.055037,9.009299,2.409658, 
271698,-0.071787,9.284483,2.785345, 
271777,-0.212969,9.428058,2.636985, 
271856,-0.122038,9.475916,2.416837, 
271935,-0.320650,9.258162,2.531697, 
272015,-0.423545,9.320377,2.794917, 
272094,-0.748980,9.023657,2.782952, 
272173,-0.083752,9.337128,2.660914, 
272252,-0.837518,9.047585,3.139495, 
272332,-0.289542,9.487881,2.632199, 
272412,-0.306292,9.301233,2.333085, 
272491,-0.459438,9.552489,2.404873, 
272571,-0.545583,9.413700,2.514946, 
272650,-0.698729,9.430450,2.689629, 
272729,-0.686765,9.308413,2.675271, 
272808,-0.461831,9.370628,2.579555, 
272888,-0.335007,9.234232,2.620234, 
272967,-0.296721,9.081086,2.816453, 
273046,-0.105288,9.306020,2.809274, 
273125,-0.026322,9.291662,2.766202, 
273205,-0.045465,9.339520,2.476660, 
273285,-0.059823,9.454380,2.500589, 
273364,-0.052644,9.442415,2.280442, 
273443,-0.208183,9.499846,2.263691, 
273523,-0.404401,9.143302,1.943041, 
273602,-0.009572,9.518989,1.971756, 
273681,-0.165111,9.341913,2.033972, 
273761,-0.291935,9.571632,2.057901, 
273840,-0.236898,9.511809,2.316335, 
273919,-0.007179,9.416093,2.112938, 
273999,-0.055037,9.327556,2.048329, 
274079,-0.134003,9.315591,2.230190, 
274158,-0.502511,9.554882,2.074651, 
274237,0.148360,9.231839,2.060294, 
274316,-0.198611,9.722385,2.014829, 
274396,-0.169896,9.334735,2.141653, 
274475,0.021536,9.447201,2.105759, 
274554,-0.138789,9.631455,2.163189, 
274633,-0.016750,9.444808,2.194297, 
274713,-0.045465,9.466345,2.349836, 
274792,-0.093323,9.351485,2.340264, 
274872,-0.236898,9.416093,2.560412, 
274952,-0.210576,9.320377,2.548447, 
275031,-0.224933,9.241411,2.593912, 
275110,-0.256041,9.353878,2.708772, 
275189,-0.212969,9.284483,2.701593, 
275269,-0.208183,9.353878,2.502982, 
275348,-0.275184,9.289269,2.787738, 
275427,-0.196218,9.241411,2.469481, 
275506,-0.258434,9.274912,2.601091, 
275586,-0.193826,9.306020,2.701593, 
275666,-0.134003,9.313198,2.656128, 
275745,-0.212969,9.277305,2.648949, 
275825,-0.208183,9.382592,2.603484, 
275904,-0.229719,9.327556,2.541268, 
275983,-0.205790,9.327556,2.488624, 
276062,-0.265613,9.456773,2.373765, 
276142,-0.323043,9.308413,2.306763, 
276221,-0.308685,9.377807,2.469481, 
276300,-0.244077,9.341913,2.426409, 
276379,-0.313471,9.368236,2.445552, 
276459,-0.375687,9.344306,2.596305, 
276539,-0.392437,9.533346,2.450338, 
276618,-0.203397,9.368236,2.330693, 
276698,-0.224933,9.341913,2.340264, 
276777,-0.150753,9.442415,2.323514, 
276856,-0.067001,9.463951,2.251727, 
276935,-0.167504,9.432844,2.211047, 
277015,-0.265613,9.473523,2.297192, 
277094,-0.366115,9.384986,2.412051, 
277173,-0.416366,9.375414,2.524518, 
277252,-0.411580,9.423272,2.179939, 
277332,-0.457045,9.365842,2.529304, 
277412,-0.284756,9.341913,2.574769, 
277491,-0.330221,9.375414,2.378551, 
277571,-0.275184,9.339520,2.488624, 
277650,-0.191433,9.361056,2.479053, 
277729,-0.220148,9.423272,2.610663, 
277808,-0.090931,9.291662,2.569983, 
277888,-0.232112,9.205518,2.833203, 
277967,-0.198611,9.291662,2.421623, 
278046,-0.253648,9.332341,2.636985, 
278125,-0.234505,9.332341,2.543661, 
278205,-0.303899,9.396950,2.550840, 
278285,-0.275184,9.320377,2.558019, 
278364,-0.289542,9.432844,2.481446, 
278444,-0.287149,9.346699,2.421623, 
278523,-0.277577,9.315591,2.376158, 
278602,-0.282363,9.459166,2.223012, 
278681,-0.335007,9.411307,2.414444, 
278761,-0.296721,9.382592,2.172760, 
278840,-0.351757,9.437630,2.313942, 
278919,-0.354150,9.461558,2.129688, 
278999,-0.330221,9.483095,2.208654, 
279079,-0.380472,9.423272,2.156010, 
279158,-0.342186,9.451987,2.146439, 
279237,-0.299114,9.478309,1.986114, 
279317,-0.404401,9.487881,2.022007, 
279396,-0.301506,9.485488,2.081830, 
279475,-0.311078,9.578811,1.902362, 
279554,-0.301506,9.274912,2.098580, 
279634,-0.457045,9.617098,2.050722, 
279713,-0.416366,9.430450,2.053115, 
279792,-0.469010,9.463951,2.005257, 
279872,-0.492939,9.471130,2.074651, 
279952,-0.411580,9.440022,2.045936, 
280031,-0.378079,9.432844,2.062687, 
280110,-0.289542,9.437630,2.089009, 
280189,-0.244077,9.353878,2.029186, 
280269,-0.220148,9.396950,2.139260, 
280348,-0.208183,9.418487,2.201475, 
280427,-0.224933,9.444808,1.971756, 
280507,-0.394830,9.478309,1.974149, 
280586,-0.335007,9.588383,2.232583, 
280666,-0.279970,9.466345,2.043544, 
280745,-0.399616,9.447201,2.084223, 
280825,-0.387651,9.451987,2.120116, 
280904,-0.301506,9.401736,2.105759, 
280983,-0.303899,9.435237,2.199083, 
281062,-0.318257,9.423272,2.234976, 
281142,-0.246470,9.384986,2.328300, 
281221,-0.248862,9.375414,2.333085, 
281300,-0.265613,9.368236,2.433588, 
281380,-0.308685,9.308413,2.519732, 
281459,-0.217755,9.334735,2.220619, 
281539,-0.212969,9.322770,2.450338, 
281618,-0.282363,9.313198,2.392908, 
281698,-0.239291,9.509417,2.479053, 
281777,-0.201004,9.463951,2.431195, 
281856,-0.100502,9.437630,2.177546, 
281936,-0.275184,9.401736,2.297192, 
282015,-0.270399,9.423272,2.304370, 
282094,-0.363722,9.435237,2.357014, 
282173,-0.323043,9.339520,2.215833, 
282253,-0.361329,9.432844,2.227798, 
282333,-0.327828,9.368236,2.115331, 
282412,-0.361329,9.363449,2.258905, 
282491,-0.354150,9.406522,2.199083, 
282571,-0.411580,9.454380,2.337871, 
282650,-0.284756,9.437630,2.148831, 
282729,-0.227326,9.456773,2.108152, 
282809,-0.179468,9.444808,2.163189, 
282888,-0.100502,9.430450,2.089009, 
282967,-0.043072,9.497452,2.151224, 
283046,-0.052644,9.408915,2.301978, 
283126,-0.145967,9.346699,2.215833, 
283206,-0.201004,9.301233,2.000471, 
283285,-0.315864,9.382592,2.285227, 
283364,-0.265613,9.370628,2.242155, 
283444,-0.320650,9.437630,2.165582, 
283523,-0.289542,9.461558,2.304370, 
283602,-0.368508,9.406522,2.206261, 
283682,-0.284756,9.451987,2.213440, 
283761,-0.256041,9.389771,2.244548, 
283840,-0.234505,9.413700,2.230190, 
283919,-0.153146,9.526167,2.270870, 
283999,-0.279970,9.423272,2.139260, 
284079,-0.145967,9.435237,2.098580, 
284158,-0.220148,9.463951,2.244548, 
284237,-0.117252,9.428058,2.242155, 
284317,-0.265613,9.471130,2.318728, 
284396,-0.399616,9.514202,2.196690, 
284475,-0.332614,9.423272,1.983721, 
284555,-0.253648,9.507024,1.899969, 
284634,-0.141182,9.440022,1.500353, 
284713,-0.028715,9.636241,1.409423, 
284792,-0.074180,9.657777,1.203633, 
284872,-0.129217,9.818102,0.957163, 
284952,-0.138789,9.638634,0.923663, 
285031,-0.134003,9.755886,0.801624, 
285111,-0.141182,9.612311,0.847089, 
285190,-0.205790,9.698457,1.296956, 
285269,-0.141182,9.698457,1.191668, 
285348,-0.177075,9.538132,1.225169, 
285428,-0.224933,9.554882,1.490782, 
285507,-0.162718,9.475916,1.478817, 
285586,-0.074180,9.461558,1.660678, 
285666,-0.327828,9.605133,1.770752, 
285746,-0.157932,9.380199,1.761180, 
285825,-0.294328,9.602740,1.974149, 
285904,-0.428331,9.217482,2.036365, 
285983,-0.232112,9.518989,2.117724, 
286063,-0.504904,9.148088,2.301978, 
286142,-0.253648,9.437630,2.483839, 
286221,-0.452260,9.174410,2.414444, 
286301,-0.413973,9.306020,2.115331, 
286380,-0.404401,9.327556,2.108152, 
286459,-0.366115,9.507024,2.184725, 
286539,-0.461831,9.741529,1.588891, 
286619,-0.653264,9.262947,1.897576, 
286698,-0.409187,9.033228,1.945434, 
286777,0.098109,8.906404,2.163189, 
286856,-0.492939,9.760673,2.005257, 
286936,-0.078966,9.523774,1.675036, 
287015,-0.270399,9.712814,1.399851, 
287094,-0.148360,9.619491,1.658285, 
287174,0.043072,9.449594,1.677429, 
287253,-0.469010,9.617098,2.019614, 
287333,0.040679,9.188767,1.670250, 
287412,-0.179468,9.698457,2.007650, 
287492,-0.291935,9.638634,1.720501, 
287571,-0.425938,10.105251,1.670250, 
287650,-0.229719,9.303627,2.263691, 
287729,-0.059823,9.777423,2.309156, 
287809,-0.241684,9.028442,1.744430, 
287888,-0.504904,9.356271,2.285227, 
287967,-0.224933,9.116980,2.055508, 
288047,-0.466617,8.781973,2.093795, 
288126,-0.308685,8.334499,2.043544, 
288206,-0.344579,10.308648,0.966735, 
288285,-0.471403,9.751101,1.462067, 
288365,-0.114860,9.241411,2.543661, 
288444,-0.547976,9.183981,1.899969, 
288523,-0.009572,9.753493,1.933470, 
288602,-0.284756,9.865960,1.988507, 
288682,-0.378079,9.210303,1.227562, 
288761,-0.378079,9.834852,1.296956, 
288840,-0.433116,9.499846,1.488389, 
288919,-0.693943,9.461558,1.430959, 
288999,-0.023929,10.054999,1.596070, 
289079,-0.265613,9.131337,1.203633, 
289158,-0.155539,9.650599,1.550604, 
289238,-0.358936,9.535739,1.208419, 
289317,-0.729837,9.822887,0.945199, 
289396,-0.093323,9.509417,1.172525, 
289475,0.045465,9.923389,0.674800, 
289555,-0.397223,9.516596,0.921270, 
289634,-1.464460,9.703242,0.892555, 
289713,-0.268006,9.552489,0.533619, 
289792,0.244077,10.040643,0.725051, 
289872,-0.256041,9.396950,0.969128, 
289952,-0.892555,9.782208,0.784874, 
290031,-0.189040,9.097836,0.586262, 
290111,-0.078966,10.107644,0.579084, 
290190,-0.509689,9.243804,0.552762, 
290269,-0.622156,9.818102,0.543190, 
290348,-0.234505,9.650599,0.052644, 
290428,-1.174918,9.892282,-0.488153, 
290507,-0.346972,9.540524,0.246470, 
290586,-0.418759,9.983212,-0.268006, 
290666,-0.715479,9.748708,-0.234505, 
290746,-0.459438,9.447201,-0.361329, 
290825,-0.705908,9.693670,-0.129217, 
290904,-0.251255,9.629062,-0.291935, 
290983,-0.174682,9.715207,-0.150753, 
291063,-0.102895,10.260790,-0.033501, 
291142,-0.380472,9.674527,-0.311078, 
291221,-0.184254,9.767851,0.239291, 
291300,-0.002393,10.119608,0.780088, 
291380,-0.471403,9.207911,1.129453, 
291459,-0.186647,9.224661,0.674800, 
291539,-0.370901,9.542917,0.961949, 
291618,-0.248862,9.753493,0.301506, 
291698,-0.239291,9.298841,0.567119, 
291777,0.009572,9.770244,0.631728, 
291856,0.411580,9.399343,0.744194, 
291936,-0.545583,10.263183,0.567119, 
292015,-0.098109,9.085872,1.191668, 
292094,-0.160325,9.686492,0.873411, 
292173,-0.239291,9.428058,0.758552, 
292253,-0.215362,9.578811,0.583870, 
292333,-0.217755,9.597955,1.060058, 
292412,0.076573,9.751101,1.158167, 
292491,-0.119645,9.655384,0.815982, 
292571,-0.272792,9.954497,1.148596, 
292650,-0.014357,9.212696,0.598227, 
292729,-0.047858,9.705635,1.306528, 
292808,0.145967,9.483095,1.191668, 
292888,0.023929,9.633848,0.995450, 
292967,-0.105288,9.765458,1.306528, 
293046,0.246470,9.353878,0.985878, 
293125,0.086145,9.846817,0.995450, 
293205,-0.016750,9.495059,1.148596, 
293285,0.040679,9.696064,1.229955, 
293364,-0.035894,9.554882,1.284992, 
293444,0.296721,9.801352,1.292170, 
293523,0.057430,9.425665,1.277813, 
293602,-0.212969,9.569240,1.744430, 
293681,-0.313471,9.442415,1.928684, 
293761,0.177075,9.851603,1.409423, 
293840,-0.423545,9.518989,1.794681, 
293919,-0.299114,9.595561,1.356779, 
293999,-0.107681,9.425665,1.600855, 
294079,-0.090931,9.406522,1.450102, 
294158,-0.315864,9.664956,1.904755, 
294237,-0.205790,9.593168,1.584105, 
294316,-0.129217,9.535739,1.672643, 
294396,-0.122038,9.803744,1.610427, 
294475,-0.294328,9.593168,1.816217, 
294554,-0.203397,9.298841,1.708536, 
294634,-0.571905,9.770244,1.526675, 
294713,-0.284756,9.435237,1.648714, 
294792,-0.303899,9.466345,1.947827, 
294872,-0.540797,9.459166,1.698965, 
294952,0.038287,9.523774,1.497960, 
295031,-0.296721,9.619491,2.318728, 
295110,-0.021536,9.250982,2.273263, 
295189,-0.002393,9.483095,1.974149, 
295269,-0.153146,9.542917,2.172760, 
295348,-0.153146,9.442415,1.914326, 
295427,-0.397223,9.404129,1.978935, 
295507,-0.382865,9.449594,1.888005, 
295586,-0.339793,9.617098,1.785109, 
295666,-0.327828,9.437630,1.792288, 
295745,-0.363722,9.612311,1.734858, 
295825,-0.260827,9.490273,1.825789, 
295904,-0.315864,9.475916,1.928684, 
295983,-0.325435,9.538132,1.679821, 
296062,-0.358936,9.540524,1.751609, 
296142,-0.323043,9.444808,1.689393, 
296221,-0.335007,9.523774,1.727680, 
296300,-0.303899,9.533346,1.713322, 
296380,-0.390044,9.540524,1.684607, 
296459,-0.361329,9.490273,1.691786, 
296539,-0.325435,9.550097,1.777931, 
296618,-0.311078,9.490273,1.698965, 
296698,-0.299114,9.552489,1.493175, 
296777,-0.339793,9.483095,1.813824, 
296856,-0.294328,9.473523,1.727680, 
296935,-0.284756,9.542917,1.687000, 
297015,-0.301506,9.490273,1.756395, 
297094,-0.315864,9.521381,1.773145, 
297173,-0.320650,9.523774,1.749216, 
297253,-0.301506,9.504631,1.742037, 
297333,-0.315864,9.487881,1.782717, 
297412,-0.284756,9.538132,1.804253, 
297491,-0.342186,9.459166,1.926291, 
297571,-0.296721,9.483095,1.667857, 
297650,-0.325435,9.502238,1.832968, 
297729,-0.284756,9.442415,1.830575, 
297808,-0.301506,9.523774,1.631963, 
297888,-0.332614,9.437630,1.907148, 
297967,-0.301506,9.526167,1.840146, 
298046,-0.344579,9.502238,1.825789, 
298125,-0.301506,9.571632,1.710929, 
298205,-0.335007,9.511809,1.818610, 
298285,-0.332614,9.566847,1.749216, 
298364,-0.294328,9.471130,1.725287, 
298444,-0.346972,9.475916,1.978935, 
298523,-0.330221,9.559668,1.844932, 
298602,-0.088538,9.612311,1.033736, 
298681,-0.318257,9.574025,1.722894, 
298761,-0.332614,9.442415,1.574534, 
298840,-0.282363,9.605133,1.619999, 
298919,-0.411580,9.480701,1.557783, 
298999,-0.323043,9.518989,1.830575, 
299079,-0.244077,9.404129,1.698965, 
299158,-0.131610,9.624276,1.828182, 
299237,-0.160325,9.504631,1.718108, 
299316,-0.138789,9.490273,1.399851, 
299396,-0.100502,9.554882,1.617606, 
299475,-0.095716,9.612311,1.639142, 
299554,-0.153146,9.533346,1.574534, 
299633,-0.143574,9.576418,1.584105, 
299713,-0.102895,9.511809,1.478817, 
299792,-0.150753,9.533346,1.710929, 
299872,-0.157932,9.521381,1.550604, 
299951,-0.203397,9.518989,1.612820, 
300031,-0.141182,9.461558,1.569748, 
300110,-0.055037,9.550097,1.555390, 
300189,-0.057430,9.562060,1.564962, 
300268,-0.098109,9.638634,1.701358, 
300348,-0.122038,9.547704,1.552997, 
300427,-0.076573,9.514202,1.675036, 
300506,-0.102895,9.621883,1.586498, 
300586,-0.062216,9.597955,1.619999, 
300666,-0.107681,9.562060,1.581712, 
300745,-0.074180,9.602740,1.560176, 
300824,-0.035894,9.516596,1.452495, 
300904,-0.050251,9.571632,1.629570, 
300983,0.055037,9.557275,1.531461, 
301062,0.064609,9.499846,1.526675, 
301141,0.023929,9.507024,1.505139, 
301221,-0.002393,9.559668,1.622392, 
301300,0.059823,9.530953,1.517104, 
301379,-0.059823,9.581204,1.536247, 
301458,-0.007179,9.581204,1.481210, 
301538,-0.028715,9.550097,1.454888, 
301618,-0.052644,9.581204,1.462067, 
301697,-0.055037,9.564454,1.478817, 
301777,0.009572,9.590775,1.438138, 
301856,-0.023929,9.559668,1.476424, 
301935,0.043072,9.566847,1.464460, 
302014,-0.055037,9.581204,1.404637, 
302094,-0.045465,9.528560,1.320885, 
302173,0.009572,9.617098,1.466853, 
302252,-0.007179,9.559668,1.414209, 
302332,-0.078966,9.578811,1.457281, 
302412,-0.035894,9.605133,1.440531, 
302491,-0.040679,9.590775,1.371136, 
302570,-0.038287,9.562060,1.505139, 
302649,-0.023929,9.569240,1.476424, 
302729,-0.016750,9.617098,1.466853, 
302808,-0.033501,9.550097,1.478817, 
302887,-0.067001,9.538132,1.512318, 
302967,-0.107681,9.547704,1.512318, 
303046,-0.102895,9.497452,1.483603, 
303125,-0.095716,9.607526,1.548212, 
303205,-0.143574,9.523774,1.612820, 
303285,-0.114860,9.492666,1.646321, 
303364,-0.141182,9.502238,1.624785, 
303443,-0.131610,9.545310,1.526675, 
303522,-0.112467,9.516596,1.521890, 
303602,-0.114860,9.571632,1.550604, 
303681,-0.256041,9.492666,1.785109, 
303760,-0.110074,9.612311,1.428566, 
303839,0.078966,9.416093,1.249098, 
303919,-0.174682,9.516596,1.615213, 
303999,-0.100502,9.538132,1.691786, 
304078,-0.201004,9.588383,1.722894, 
304158,-0.028715,9.664956,1.746823, 
304237,-0.212969,9.487881,1.722894, 
304316,-0.313471,9.504631,1.651107, 
304395,-0.134003,9.609919,1.557783, 
304475,-0.026322,9.413700,1.672643, 
304554,-0.105288,9.463951,1.629570, 
304633,-0.088538,9.495059,1.665464, 
304712,-0.124431,9.461558,1.600855, 
304792,-0.095716,9.590775,1.648714, 
304872,-0.205790,9.657777,1.806646, 
304951,-0.105288,9.461558,1.691786, 
305030,-0.141182,9.535739,1.732466, 
305110,-0.160325,9.509417,1.785109, 
305189,-0.145967,9.451987,1.655892, 
305268,-0.165111,9.550097,1.777931, 
305348,-0.212969,9.533346,1.854504, 
305427,-0.145967,9.475916,1.830575, 
305506,-0.198611,9.552489,1.943041, 
305585,-0.143574,9.487881,1.895183, 
305665,-0.098109,9.530953,1.730072, 
305745,-0.134003,9.535739,1.797074, 
305824,-0.186647,9.466345,1.801860, 
305903,-0.117252,9.473523,1.809039, 
305983,-0.174682,9.490273,1.823396, 
306062,-0.131610,9.507024,1.775538, 
306141,-0.150753,9.523774,1.837753, 
306221,-0.198611,9.523774,1.842539, 
306300,-0.184254,9.507024,1.861683, 
306379,-0.138789,9.557275,1.761180, 
306458,-0.172289,9.590775,1.909541, 
306538,-0.134003,9.483095,1.938256, 
306618,-0.196218,9.449594,1.847325, 
306697,-0.157932,9.485488,1.964578, 
306776,-0.184254,9.432844,1.806646, 
306856,-0.162718,9.518989,1.868861, 
306935,-0.119645,9.435237,1.933470, 
307014,-0.208183,9.523774,1.981328, 
307094,-0.193826,9.456773,1.993292, 
307173,-0.184254,9.451987,2.055508, 
307252,-0.210576,9.428058,2.017221, 
307332,-0.208183,9.497452,1.988507, 
307412,-0.165111,9.652991,1.593677, 
307491,-0.239291,9.480701,1.856897, 
307570,-0.251255,9.530953,1.622392, 
307649,-0.172289,9.468738,1.653499, 
307729,-0.212969,9.530953,1.615213, 
307808,-0.241684,9.461558,1.675036, 
307887,-0.189040,9.475916,1.557783, 
307967,-0.279970,9.552489,1.631963, 
308046,-0.217755,9.569240,1.488389, 
308125,-0.201004,9.518989,1.603248, 
308205,-0.179468,9.574025,1.634356, 
308285,-0.241684,9.588383,1.629570, 
308364,-0.256041,9.554882,1.627177, 
308443,-0.246470,9.451987,1.641535, 
308522,-0.157932,9.451987,1.579319, 
308602,-0.399616,9.478309,1.608034, 
308681,-0.143574,9.578811,1.584105, 
308760,-0.311078,9.463951,1.844932, 
308840,-0.138789,9.466345,1.873647, 
308919,-0.193826,9.485488,1.768359, 
308999,-0.196218,9.480701,1.842539, 
309078,-0.220148,9.497452,1.770752, 
309158,-0.246470,9.554882,1.849718, 
309237,-0.212969,9.399343,1.562569, 
309316,-0.303899,9.597955,1.782717, 
309396,-0.222540,9.535739,1.682214, 
309475,-0.311078,9.554882,1.509925, 
309554,-0.330221,9.550097,1.727680, 
309633,-0.327828,9.564454,1.703751, 
309713,-0.342186,9.530953,1.665464, 
309792,-0.275184,9.499846,1.610427, 
309872,-0.248862,9.562060,1.698965, 
309951,-0.112467,9.514202,1.524282, 
310031,-0.191433,9.538132,1.708536, 
310110,-0.241684,9.583597,1.531461, 
310189,-0.153146,9.554882,1.502746, 
310269,-0.220148,9.526167,1.631963, 
310348,-0.222540,9.552489,1.591284, 
310427,-0.232112,9.495059,1.562569, 
310506,-0.212969,9.516596,1.584105, 
310586,-0.215362,9.562060,1.646321, 
310666,-0.234505,9.552489,1.622392, 
310745,-0.217755,9.530953,1.660678, 
310824,-0.203397,9.528560,1.548212, 
310904,-0.193826,9.569240,1.646321, 
310983,-0.160325,9.552489,1.612820, 
311062,-0.198611,9.535739,1.682214, 
311141,-0.224933,9.521381,1.732466, 
311221,-0.208183,9.502238,1.567355, 
311300,-0.184254,9.475916,1.739644, 
311379,-0.248862,9.528560,1.734858, 
311459,-0.186647,9.483095,1.801860, 
311539,-0.234505,9.475916,1.746823, 
311618,-0.227326,9.528560,1.797074, 
311697,-0.145967,9.507024,1.832968, 
311777,-0.181861,9.514202,1.902362, 
311856,-0.196218,9.514202,1.809039, 
311935,-0.157932,9.492666,1.687000, 
312014,-0.174682,9.466345,1.813824, 
312094,-0.191433,9.497452,1.825789, 
312173,-0.203397,9.497452,1.866468, 
312252,-0.198611,9.485488,1.904755, 
312332,-0.143574,9.487881,1.859290, 
312412,-0.232112,9.530953,1.978935, 
312491,-0.186647,9.533346,1.947827, 
312570,-0.126824,9.454380,1.840146, 
312650,-0.050251,9.478309,1.876040, 
312729,-0.019143,9.509417,1.962185, 
312808,-0.021536,9.418487,1.828182, 
312887,-0.136396,9.473523,2.067473, 
312967,-0.186647,9.449594,2.007650, 
313046,-0.160325,9.485488,1.868861, 
313125,-0.169896,9.490273,1.938256, 
313205,-0.193826,9.447201,1.964578, 
313285,-0.148360,9.423272,1.895183, 
313364,-0.191433,9.483095,1.837753, 
313443,-0.342186,9.504631,2.057901, 
313523,-0.217755,9.511809,1.775538, 
313602,-0.208183,9.437630,1.727680, 
313681,-0.129217,9.583597,1.785109, 
313760,-0.203397,9.600348,1.727680, 
313840,-0.222540,9.545310,1.684607, 
313919,-0.263220,9.571632,1.765966, 
313999,-0.251255,9.550097,1.890397, 
314078,-0.363722,9.509417,1.806646, 
314158,-0.217755,9.509417,1.892790, 
314237,-0.301506,9.495059,1.866468, 
314316,-0.239291,9.447201,2.156010, 
314396,-0.196218,9.425665,2.055508, 
314475,-0.177075,9.471130,2.127295, 
314554,-0.136396,9.401736,2.191904, 
314633,-0.169896,9.325163,2.163189, 
314713,-0.253648,9.332341,2.158403, 
314792,-0.162718,9.356271,2.206261, 
314872,-0.260827,9.423272,2.146439, 
314951,-0.169896,9.473523,2.144046, 
315031,-0.208183,9.387379,2.208654, 
315110,-0.172289,9.425665,2.345050, 
315189,-0.148360,9.463951,2.158403, 
315269,-0.177075,9.373021,2.304370, 
315348,-0.260827,9.411307,2.163189, 
315427,-0.203397,9.538132,2.213440, 
315506,-0.131610,9.396950,2.086616, 
315586,-0.294328,9.392164,2.278049, 
315666,-0.205790,9.411307,2.215833, 
315745,-0.212969,9.401736,2.132081, 
315824,-0.217755,9.442415,2.033972, 
315904,-0.208183,9.490273,2.050722, 
315983,-0.224933,9.511809,1.904755, 
316062,-0.222540,9.437630,1.821003, 
316141,-0.268006,9.475916,1.823396, 
316221,-0.311078,9.516596,1.761180, 
316300,-0.284756,9.559668,1.780324, 
316379,-0.323043,9.528560,1.754002, 
316459,-0.346972,9.564454,1.763573, 
316539,-0.332614,9.550097,1.842539, 
316618,-0.313471,9.526167,1.744430, 
316697,-0.378079,9.401736,1.873647, 
316777,-0.268006,9.499846,1.854504, 
316856,-0.260827,9.418487,1.859290, 
316935,-0.299114,9.473523,1.902362, 
317014,-0.308685,9.459166,1.988507, 
317094,-0.361329,9.495059,1.931077, 
317173,-0.306292,9.504631,1.909541, 
317252,-0.325435,9.523774,1.983721, 
317332,-0.330221,9.492666,1.847325, 
317412,-0.327828,9.487881,1.907148, 
317491,-0.323043,9.456773,1.895183, 
317570,-0.330221,9.504631,2.069865, 
317649,-0.392437,9.509417,1.947827, 
317729,-0.332614,9.451987,1.959792, 
317808,-0.320650,9.473523,1.993292, 
317887,-0.335007,9.463951,1.976542, 
317967,-0.370901,9.463951,1.945434, 
318046,-0.318257,9.478309,1.940648, 
318125,-0.335007,9.473523,2.024400, 
318205,-0.335007,9.492666,1.998078, 
318285,-0.375687,9.447201,2.077044, 
318364,-0.370901,9.382592,2.007650, 
318443,-0.308685,9.466345,1.938256, 
318522,-0.363722,9.451987,2.017221, 
318602,-0.335007,9.497452,1.935863, 
318681,-0.294328,9.454380,2.098580, 
318760,-0.268006,9.447201,2.041151, 
318840,-0.354150,9.425665,2.108152, 
318919,-0.339793,9.461558,2.084223, 
318999,-0.325435,9.428058,2.086616, 
319078,-0.320650,9.392164,2.081830, 
319158,-0.354150,9.447201,1.986114, 
319237,-0.325435,9.530953,2.108152, 
319316,-0.344579,9.600348,2.017221, 
319395,-0.229719,9.169623,1.923898, 
319475,-0.418759,9.416093,2.471874, 
319554,-0.215362,9.624276,1.923898, 
319633,-0.296721,9.480701,1.746823, 
319713,-0.471403,9.487881,1.873647, 
319792,-0.378079,9.463951,1.952613, 
319872,-0.351757,9.514202,1.725287, 
319951,-0.337400,9.382592,1.832968, 
320031,-0.428331,9.564454,1.990900, 
320110,-0.385258,9.533346,1.639142, 
320189,-0.409187,9.540524,1.739644, 
320268,-0.478582,9.595561,1.481210, 
320348,-0.320650,9.588383,1.631963, 
320427,-0.361329,9.590775,1.658285, 
320506,-0.394830,9.564454,1.701358, 
320586,-0.406794,9.502238,1.713322, 
320666,-0.447474,9.557275,1.773145, 
320745,-0.382865,9.523774,1.670250, 
320824,-0.485760,9.459166,1.641535, 
320904,-0.488153,9.593168,1.591284, 
320983,-0.366115,9.449594,1.722894, 
321062,-0.368508,9.514202,1.871254, 
321141,-0.409187,9.466345,1.871254, 
321221,-0.378079,9.540524,2.050722, 
321300,-0.631728,9.294055,1.720501, 
321379,-0.397223,9.423272,1.703751, 
321458,-0.492939,9.514202,1.811431, 
321538,-0.380472,9.530953,1.658285, 
321618,-0.337400,9.504631,1.610427, 
321697,-0.370901,9.686492,1.636749, 
321776,-0.301506,9.645813,1.497960, 
321856,-0.356543,9.574025,1.572141, 
321935,-0.387651,9.578811,1.679821, 
322014,-0.224933,9.559668,1.490782, 
322094,-0.418759,9.504631,1.715715, 
322173,-0.385258,9.509417,1.780324, 
322252,-0.361329,9.447201,1.782717, 
322332,-0.330221,9.418487,1.787502, 
322412,-0.344579,9.411307,1.914326, 
322491,-0.296721,9.588383,1.916719, 
322570,-0.282363,9.542917,1.947827, 
322649,-0.325435,9.428058,2.010043, 
322729,-0.263220,9.523774,1.837753, 
322808,-0.289542,9.554882,1.792288, 
322887,-0.169896,9.674527,1.842539, 
322967,-1.232348,9.499846,1.646321, 
323046,0.177075,9.437630,1.629570, 
323125,0.268006,9.430450,1.909541, 
323205,-0.246470,9.487881,1.761180, 
323285,-0.258434,9.712814,1.799467, 
323364,-0.325435,9.310805,1.770752, 
323443,-0.969128,9.626669,1.983721, 
323522,-0.375687,9.466345,1.859290, 
323602,0.181861,9.480701,1.844932, 
323681,-0.327828,9.475916,1.809039, 
323760,-0.509689,9.545310,1.823396, 
323840,-0.323043,9.487881,1.701358, 
323919,-0.062216,9.365842,1.689393, 
323999,-0.131610,9.547704,1.806646, 
324078,-0.335007,9.495059,1.811431, 
324158,-0.351757,9.597955,1.639142, 
324237,-0.184254,9.574025,1.619999, 
324316,-0.260827,9.516596,1.701358, 
324395,-0.272792,9.576418,1.746823, 
324475,-0.296721,9.533346,1.684607, 
324554,-0.303899,9.518989,1.691786, 
324633,-0.258434,9.530953,1.730072, 
324712,-0.332614,9.514202,1.720501, 
324792,-0.325435,9.499846,1.780324, 
324872,-0.339793,9.569240,1.701358, 
324951,-0.263220,9.516596,1.880826, 
325031,-0.270399,9.516596,1.768359, 
325110,-0.260827,9.492666,1.792288, 
325189,-0.272792,9.499846,1.849718, 
325268,-0.260827,9.459166,1.816217, 
325348,-0.258434,9.521381,1.811431, 
325427,-0.248862,9.511809,1.847325, 
325506,-0.191433,9.461558,1.813824, 
325585,-0.265613,9.459166,1.892790, 
325665,-0.172289,9.521381,1.715715, 
325745,-0.263220,9.442415,1.832968, 
325824,-0.311078,9.533346,1.828182, 
325904,-0.208183,9.497452,1.804253, 
325983,-0.229719,9.490273,1.904755, 
326062,-0.236898,9.492666,2.005257, 
326141,-0.296721,9.487881,1.964578, 
326221,-0.251255,9.504631,1.899969, 
326300,-0.251255,9.461558,1.926291, 
326379,-0.282363,9.456773,1.950220, 
326459,-0.241684,9.456773,1.974149, 
326539,-0.272792,9.468738,1.706143, 
326618,-0.275184,9.509417,1.837753, 
326697,-0.248862,9.504631,1.761180, 
326777,-0.222540,9.480701,1.777931, 
326856,-0.279970,9.526167,1.813824, 
326935,-0.323043,9.535739,1.713322, 
327014,-0.308685,9.530953,1.765966, 
327094,-0.234505,9.528560,1.694179, 
327173,-0.296721,9.502238,1.751609, 
327252,-0.229719,9.499846,1.730072, 
327332,-0.222540,9.475916,1.631963, 
327412,-0.325435,9.516596,1.933470, 
327491,-0.313471,9.440022,1.701358, 
327570,-0.260827,9.574025,1.651107, 
327650,-0.165111,9.447201,1.643928, 
327729,-0.148360,9.576418,1.718108, 
327808,-0.229719,9.528560,1.677429, 
327887,-0.311078,9.521381,1.679821, 
327967,-0.270399,9.552489,1.713322, 
328046,-0.327828,9.516596,1.631963, 
328125,-0.303899,9.583597,1.677429, 
328205,-0.287149,9.576418,1.751609, 
328285,-0.241684,9.408915,1.612820, 
328364,-0.296721,9.550097,1.780324, 
328443,-0.212969,9.533346,1.792288, 
328523,-0.186647,9.528560,1.739644, 
328602,-0.205790,9.542917,1.933470, 
328681,-0.160325,9.454380,1.782717, 
328760,-0.222540,9.559668,1.811431, 
328840,-0.263220,9.466345,1.890397, 
328919,-0.323043,9.502238,1.976542, 
328999,-0.287149,9.418487,1.926291, 
329078,-0.349365,9.480701,1.940648, 
329158,-0.330221,9.377807,2.007650, 
329237,-0.332614,9.502238,2.117724, 
329316,-0.265613,9.463951,1.909541, 
329396,-0.301506,9.420879,1.945434, 
329475,-0.263220,9.521381,1.986114, 
329554,-0.279970,9.487881,1.902362, 
329633,-0.330221,9.449594,1.883219, 
329713,-0.428331,9.480701,1.885612, 
329792,-0.291935,9.533346,1.823396, 
329872,-0.354150,9.490273,1.785109, 
329951,-0.303899,9.545310,1.761180, 
330031,-0.351757,9.526167,1.756395, 
330110,-0.299114,9.502238,1.885612, 
330189,-0.232112,9.497452,1.780324, 
330268,-0.361329,9.504631,1.871254, 
330348,-0.428331,9.444808,1.718108, 
330427,-0.423545,9.540524,1.868861, 
330506,-0.366115,9.504631,1.794681, 
330586,-0.418759,9.507024,1.787502, 
330666,-0.306292,9.526167,1.765966, 
330745,-0.330221,9.447201,1.811431, 
330824,-0.296721,9.463951,1.797074, 
330904,-0.275184,9.389771,1.849718, 
330983,-0.337400,9.566847,1.871254, 
331062,-0.284756,9.507024,1.670250, 
331141,-0.248862,9.542917,1.809039, 
331221,-0.344579,9.521381,1.775538, 
331300,-0.263220,9.490273,1.720501, 
331379,-0.294328,9.530953,1.701358, 
331459,-0.246470,9.495059,1.770752, 
331539,-0.251255,9.538132,1.715715, 
331618,-0.241684,9.483095,1.754002, 
331697,-0.258434,9.497452,1.782717, 
331777,-0.263220,9.518989,1.821003, 
331856,-0.241684,9.454380,1.634356, 
331935,-0.248862,9.502238,1.861683, 
332015,-0.258434,9.490273,1.787502, 
332094,-0.232112,9.497452,1.832968, 
332173,-0.332614,9.502238,1.811431, 
332252,-0.279970,9.487881,1.878433, 
332332,-0.303899,9.478309,1.835361, 
332412,-0.229719,9.509417,1.931077, 
332491,-0.263220,9.459166,1.749216, 
332570,-0.251255,9.451987,1.890397, 
332650,-0.270399,9.485488,1.868861, 
332729,-0.294328,9.437630,1.888005, 
332808,-0.296721,9.478309,1.832968, 
332888,-0.332614,9.483095,1.809039, 
332967,-0.301506,9.408915,1.945434, 
333046,-0.284756,9.437630,1.785109, 
333125,-0.265613,9.456773,1.976542, 
333205,-0.342186,9.471130,1.785109, 
333285,-0.337400,9.545310,1.959792, 
333364,-0.313471,9.408915,1.878433, 
333443,-0.311078,9.480701,1.888005, 
333523,-0.335007,9.425665,1.976542, 
333602,-0.332614,9.502238,1.861683, 
333681,-0.294328,9.444808,1.813824, 
333761,-0.279970,9.538132,1.926291, 
333840,-0.217755,9.418487,1.828182, 
333919,-0.282363,9.373021,1.713322, 
333999,-0.337400,9.497452,1.955006, 
334079,-0.512082,9.399343,1.907148, 
334158,-0.536011,9.483095,1.852111, 
334237,-0.437902,9.540524,1.821003, 
334316,-0.303899,9.432844,1.710929, 
334396,-0.294328,9.574025,1.744430, 
334475,-0.260827,9.499846,1.493175, 
334554,-0.368508,9.562060,1.773145, 
334634,-0.423545,9.574025,1.615213, 
334713,-0.394830,9.554882,1.648714, 
334792,-0.368508,9.461558,1.660678, 
334872,-0.358936,9.545310,1.706143, 
334952,-0.437902,9.547704,1.660678, 
335031,-0.358936,9.523774,1.780324, 
335110,-0.342186,9.473523,1.816217, 
335190,-0.306292,9.528560,1.792288, 
335269,-0.287149,9.423272,1.789895, 
335348,-0.279970,9.490273,1.696572, 
335427,-0.318257,9.542917,1.787502, 
335507,-0.277577,9.514202,1.799467, 
335586,-0.232112,9.468738,1.734858, 
335666,-0.246470,9.451987,1.837753, 
335745,-0.236898,9.504631,1.809039, 
335825,-0.263220,9.425665,1.818610, 
335904,-0.191433,9.547704,1.899969, 
335983,-0.215362,9.518989,1.792288, 
336063,-0.172289,9.480701,1.883219, 
336142,-0.205790,9.423272,1.928684, 
336221,-0.167504,9.562060,1.926291, 
336300,-0.172289,9.451987,1.916719, 
336380,-0.210576,9.468738,1.976542, 
336459,-0.169896,9.423272,2.100973, 
336539,-0.131610,9.461558,1.811431, 
336618,-0.172289,9.447201,1.907148, 
336698,-0.131610,9.490273,1.947827, 
336777,-0.131610,9.471130,1.974149, 
336856,-0.167504,9.483095,1.883219, 
336935,-0.124431,9.492666,1.718108, 
337015,-0.172289,9.502238,1.923898, 
337094,-0.114860,9.487881,1.873647, 
337173,-0.136396,9.483095,1.682214, 
337253,-0.165111,9.463951,1.904755, 
337333,-0.177075,9.518989,1.799467, 
337412,-0.186647,9.516596,1.859290, 
337491,-0.138789,9.507024,1.799467, 
337571,-0.184254,9.463951,1.844932, 
337650,-0.179468,9.425665,1.859290, 
337729,-0.227326,9.523774,1.978935, 
337808,-0.174682,9.468738,1.756395, 
337888,-0.239291,9.442415,1.921505, 
337967,-0.203397,9.502238,1.861683, 
338046,-0.208183,9.514202,1.866468, 
338126,-0.201004,9.490273,1.818610, 
338206,-0.179468,9.483095,1.861683, 
338285,-0.205790,9.535739,1.797074, 
338364,-0.191433,9.516596,1.866468, 
338444,-0.184254,9.430450,1.713322, 
338523,-0.217755,9.533346,1.806646, 
338602,-0.153146,9.583597,1.545819, 
338681,-0.105288,9.468738,1.605641, 
338761,-0.215362,9.516596,1.732466, 
338840,-0.265613,9.451987,1.689393, 
338919,-0.313471,9.545310,1.758787, 
338999,-0.253648,9.499846,1.773145, 
339079,-0.265613,9.538132,1.727680, 
339158,-0.279970,9.530953,1.725287, 
339237,-0.246470,9.492666,1.706143, 
339317,-0.301506,9.547704,1.849718, 
339396,-0.327828,9.557275,1.739644, 
339475,-0.272792,9.552489,1.835361, 
339554,-0.308685,9.530953,1.878433, 
339634,-0.224933,9.516596,2.017221, 
339713,-0.282363,9.447201,1.947827, 
339792,-0.368508,9.375414,2.010043, 
339872,-0.232112,9.461558,2.225405, 
339952,-0.586262,9.093051,2.108152, 
340031,-1.316099,9.377807,2.043544, 
340110,-1.452495,8.590540,2.213440, 
340190,-1.131845,10.366077,2.373765, 
340269,-0.911698,8.683864,1.897576, 
340348,1.062451,9.136123,1.622392, 
340427,0.110074,10.787230,3.161031, 
340507,-0.658050,7.408443,2.524518, 
340586,0.732230,9.423272,2.852346, 
340666,0.038287,8.736507,2.883454, 
340745,-0.227326,8.746079,2.531697, 
340825,1.201240,11.421350,2.548447, 
340904,1.519497,11.725249,3.058136, 
340983,0.397223,11.079165,-1.423780, 
341063,-4.302449,9.607526,-2.543661, 
341142,1.373529,9.509417,0.095716, 
341221,-1.009807,6.920290,0.880590, 
341300,-1.624785,8.882475,1.215597, 
341380,-0.294328,8.059315,1.787502, 
341459,-1.019379,12.313905,3.275891, 
341539,3.170603,13.342855,3.531932, 
341618,1.150989,10.222504,-1.579319, 
341698,-1.572141,8.190925,0.782481, 
341777,-0.631728,8.399107,1.409423, 
341856,-0.696336,8.502003,1.849718, 
341936,1.447709,7.540053,2.766202, 
342015,0.215362,10.466580,2.469481, 
342094,-3.866940,13.752043,5.836303, 
342173,-1.892790,9.916211,-4.283306, 
342253,2.739880,8.346463,1.512318, 
342333,-0.780088,6.570926,2.237369, 
342412,-1.995685,8.822652,1.485996, 
342491,-0.780088,9.301233,3.929155, 
342571,0.043072,10.605369,1.311314, 
342650,1.655892,14.496237,-0.500118, 
342729,1.636749,7.925312,0.217755, 
342809,-1.641535,8.308177,0.820767, 
342888,0.997843,8.647970,2.029186, 
342967,0.524047,8.186138,2.510161, 
343046,-0.050251,8.585754,3.795152, 
343126,0.696336,11.478780,1.715715, 
343206,-2.141653,13.419429,-0.512082, 
343285,-0.983485,7.867882,0.227326, 
343364,0.354150,8.506788,0.825553, 
343444,-0.863840,7.760201,1.842539, 
343523,-1.505139,8.884868,2.883454, 
343602,-0.308685,8.894440,2.081830, 
343681,-1.292170,11.433315,2.735094, 
343761,1.356779,11.813787,0.351757, 
343840,0.253648,7.453909,-0.045465, 
343919,-1.512318,8.652756,0.603013, 
343999,-0.440295,8.126316,2.474267, 
344079,1.574534,8.791544,2.273263, 
344158,-0.236898,8.963834,2.481446, 
344237,-0.796838,11.612783,2.763809, 
344317,-0.234505,11.222739,-2.153617, 
344396,0.605406,9.976034,0.179468, 
344475,0.866233,8.289034,1.332850, 
344554,0.019143,8.863332,1.943041, 
344634,-1.617606,8.470895,2.493410, 
344713,-0.368508,9.894675,1.909541, 
344792,-0.471403,8.923154,3.141888, 
344872,2.096188,14.029620,-1.526675, 
344952,0.851875,8.269891,1.103131, 
345031,-0.131610,9.748708,-0.540797, 
345110,1.988507,9.990392,1.064844, 
345190,1.409423,9.894675,1.136631, 
345269,0.825553,9.361056,0.339793, 
345348,1.186882,9.789387,1.416602, 
345427,0.844697,9.528560,1.043308, 
345507,-0.478582,9.492666,1.469246, 
345586,-1.296956,9.121766,1.418995, 
345666,-0.794446,9.830067,1.150989, 
345746,-0.940413,9.655384,1.258670, 
345825,-0.411580,9.382592,1.033736, 
345904,-0.691550,10.021499,0.952377, 
345983,-0.536011,9.595561,1.215597, 
346063,-0.344579,9.655384,1.268241, 
346142,-0.263220,9.571632,1.416602, 
346221,-0.272792,9.595561,1.440531, 
346300,-0.421152,9.449594,1.541033, 
346380,-0.409187,9.588383,1.737251, 
346459,-0.320650,9.490273,1.651107, 
346539,-0.191433,9.468738,1.371136, 
346618,-0.181861,9.562060,1.612820, 
346698,-0.141182,9.468738,1.682214, 
346777,0.114860,9.583597,1.646321, 
346856,0.098109,9.504631,1.677429, 
346936,0.134003,9.557275,1.622392, 
347015,0.117252,9.562060,1.596070, 
347094,-0.059823,9.471130,1.770752, 
347173,0.162718,9.389771,1.801860, 
347253,0.114860,9.478309,1.895183, 
347333,0.162718,9.487881,1.663071, 
347412,0.212969,9.523774,1.636749, 
347491,0.217755,9.526167,1.648714, 
347571,0.119645,9.550097,1.718108, 
347650,0.189040,9.511809,1.713322, 
347729,0.244077,9.518989,1.777931, 
347809,0.126824,9.495059,1.897576, 
347888,0.253648,9.435237,1.821003, 
347967,0.167504,9.521381,1.835361, 
348046,0.105288,9.593168,1.806646, 
348126,0.110074,9.435237,1.742037, 
348206,0.215362,9.545310,1.811431, 
348285,0.308685,9.559668,1.844932, 
348364,0.284756,9.538132,1.888005, 
348444,0.382865,9.521381,1.878433, 
348523,0.323043,9.432844,1.988507, 
348602,0.177075,9.444808,2.153617, 
348682,0.232112,9.370628,1.883219, 
348761,0.215362,9.540524,2.043544, 
348840,0.296721,9.454380,2.033972, 
348919,0.268006,9.483095,1.890397, 
348999,0.203397,9.530953,2.019614, 
349079,0.258434,9.485488,1.933470, 
349158,0.282363,9.504631,1.971756, 
349237,0.318257,9.432844,1.978935, 
349317,0.373294,9.428058,1.971756, 
349396,0.433116,9.392164,1.897576, 
349475,0.509689,9.526167,1.945434, 
349555,0.270399,9.451987,1.866468, 
349634,-0.117252,9.370628,2.019614, 
349713,-0.792053,9.327556,2.251727, 
349792,-1.028950,9.440022,1.986114, 
349872,-0.792053,9.609919,1.792288, 
349952,-0.607799,9.664956,1.708536, 
350031,-0.363722,9.279697,1.423780, 
350110,-0.052644,9.621883,1.521890, 
350190,0.177075,9.528560,1.615213, 
350269,0.009572,9.511809,1.691786, 
350348,-0.035894,9.602740,1.512318, 
350428,0.277577,9.581204,1.543426, 
350507,0.368508,9.526167,1.646321, 
350586,0.579084,9.480701,1.718108, 
350666,0.760945,9.380199,1.179704, 
350746,0.612584,9.803744,1.160560, 
350825,0.478582,9.253376,1.426173, 
350904,-0.174682,9.128944,0.782481, 
350983,-0.461831,10.308648,1.103131, 
351063,-2.311549,8.925548,2.194297, 
351142,-1.938256,10.851838,1.387887, 
351221,-1.828182,9.621883,1.517104, 
351301,-2.629806,9.310805,1.907148, 
351380,-2.608270,9.205518,1.086380, 
351459,-2.321121,9.262947,1.095952, 
351539,-2.301978,9.227054,1.119881, 
351619,-2.737487,9.471130,1.081594, 
351698,-2.127295,9.404129,1.330457, 
351777,-0.411580,10.425900,1.641535, 
351856,0.064609,8.411072,2.211047, 
351936,0.981092,10.035856,2.802095, 
352015,0.131610,9.956890,1.663071, 
352094,0.433116,7.652520,2.402480, 
352173,0.500118,10.002356,1.907148, 
352253,1.067237,8.963834,2.670485, 
352333,0.495332,9.128944,2.096188, 
352412,0.662836,9.289269,2.012436, 
352491,0.390044,9.868353,2.380944, 
352571,0.524047,10.361292,2.340264, 
352650,-1.083987,12.328262,1.876040, 
352729,-1.684607,7.004042,0.201004, 
352809,1.787502,9.956890,0.361329, 
352888,-0.655657,11.208382,1.397458, 
352967,-1.763573,6.822181,3.024636, 
353046,-2.280442,10.167466,1.430959, 
353126,-1.119881,8.901618,2.598698, 
353206,-1.399851,9.107409,2.467088, 
353285,-1.742037,9.193553,2.333085, 
353365,0.031108,10.112430,3.192139, 
353444,-1.789895,10.885339,2.500589, 
353523,-0.885376,8.951869,1.871254, 
353602,0.784874,6.896361,0.727444, 
353682,1.720501,11.203596,1.081594, 
353761,-0.160325,10.007142,2.153617, 
353840,0.385258,8.368000,2.735094, 
353919,1.100738,8.789151,2.936098, 
353999,0.703515,8.789151,2.424016, 
354079,-0.586262,9.131337,2.828417, 
354158,-0.449867,10.342149,3.187354, 
354238,-0.287149,10.004748,3.764045, 
354317,-0.136396,12.768558,-1.076809, 
354396,-0.658050,5.577869,0.047858, 
354475,-0.023929,12.273226,1.261063, 
354555,-0.732230,7.032757,2.139260, 
354634,-0.335007,9.782208,2.462302, 
354713,-0.124431,8.612076,2.660914, 
354792,0.136396,9.585990,1.390280, 
354872,0.095716,10.547939,2.646556, 
354952,-0.397223,10.875768,0.734623, 
355031,-0.026322,9.693670,0.409187, 
355111,2.201475,7.669271,0.413973, 
355190,0.390044,11.409386,0.859054, 
355269,1.983721,7.248118,1.677429, 
355348,1.229955,9.483095,1.842539, 
355428,1.009807,8.451752,2.062687, 
355507,-1.191668,10.423508,1.995685, 
355586,-0.141182,13.273461,1.964578, 
355666,-0.112467,9.052371,0.655657, 
355746,0.516868,8.214853,0.196218, 
355825,-1.086380,11.785072,0.794446, 
355904,-1.160560,6.606819,1.308921, 
355984,-0.837518,10.361292,1.622392, 
356063,-1.103131,9.729565,1.287385, 
356142,-1.007414,9.674527,1.076809, 
356221,-0.461831,10.564690,1.363958, 
356301,1.904755,9.265340,0.981092, 
356380,0.684372,9.483095,1.186882, 
356459,0.710694,9.734350,0.902126, 
356539,1.706143,9.607526,1.363958, 
356619,2.005257,8.963834,1.493175, 
356698,1.806646,9.858782,1.509925, 
356777,1.148596,9.344306,1.617606, 
356857,0.854268,9.435237,1.978935, 
356936,0.634121,9.712814,1.794681, 
357015,-0.552762,9.128944,1.754002, 
357094,-0.301506,9.492666,1.809039, 
357174,-0.325435,9.389771,1.782717, 
357253,-0.425938,9.564454,1.789895, 
357333,-0.528833,9.588383,1.813824, 
357412,-0.313471,9.614705,1.914326, 
357492,-0.272792,9.509417,1.646321, 
357571,-0.380472,9.516596,1.883219, 
357650,-0.392437,9.509417,1.868861, 
357729,-0.469010,9.502238,1.909541, 
357809,-0.413973,9.497452,1.983721, 
357888,-0.184254,9.361056,2.017221, 
357967,-0.256041,9.463951,1.966970, 
358047,-0.205790,9.475916,2.105759, 
358126,-0.189040,9.485488,2.057901, 
358206,-0.306292,9.473523,2.108152, 
358285,-0.198611,9.449594,1.935863, 
358365,-0.282363,9.440022,2.055508, 
358444,-0.244077,9.463951,2.048329, 
358523,-0.217755,9.440022,1.990900, 
358603,-0.232112,9.389771,1.969363, 
358682,-0.217755,9.483095,2.096188, 
358761,-0.196218,9.430450,2.002864, 
358840,-0.248862,9.478309,2.074651, 
358920,-0.208183,9.440022,2.077044, 
359000,-0.220148,9.413700,2.060294, 
359079,-0.256041,9.440022,2.093795, 
359158,-0.241684,9.404129,2.165582, 
359238,-0.222540,9.485488,1.978935, 
359317,-0.258434,9.413700,1.892790, 
359396,-0.294328,9.523774,2.225405, 
359476,-0.162718,9.430450,1.988507, 
359555,-0.050251,9.487881,2.062687, 
359634,-0.081359,9.485488,2.079437, 
359713,-0.179468,9.394557,1.943041, 
359793,-0.282363,9.502238,2.100973, 
359873,-0.346972,9.413700,2.084223, 
359952,-0.272792,9.552489,1.945434, 
360031,-0.382865,9.463951,2.043544, 
360111,-0.193826,9.497452,2.098580, 
360190,-0.110074,9.267733,2.254119, 
360269,0.016750,9.550097,2.318728, 
360349,0.076573,9.380199,2.184725, 
360428,0.043072,9.396950,2.055508, 
360507,-0.002393,9.413700,2.163189, 
360586,-0.016750,9.538132,2.223012, 
360666,-0.021536,9.511809,1.976542, 
360746,-0.126824,9.566847,2.268477, 
360825,-0.040679,9.270126,2.029186, 
360904,-0.021536,9.341913,2.268477, 
360984,0.241684,9.406522,2.096188, 
361063,0.014357,9.310805,2.510161, 
361142,0.256041,9.373021,2.548447, 
361221,0.179468,9.315591,2.148831, 
361301,0.157932,9.454380,2.347443, 
361380,0.471403,9.317985,2.220619, 
361459,0.201004,9.365842,2.191904, 
361539,-0.318257,9.461558,1.888005, 
361619,-0.435509,9.399343,1.737251, 
361698,-0.172289,9.566847,1.694179, 
361777,-0.198611,9.535739,1.349600, 
361857,-0.514475,9.629062,1.529068, 
361936,-0.993057,9.528560,1.519497, 
362015,-1.512318,9.169623,1.519497, 
362095,-1.536247,9.715207,1.447709, 
362174,-1.605641,9.480701,1.512318, 
362253,-1.775538,9.073908,1.526675, 
362333,-2.153617,9.394557,1.533854, 
362413,-2.426409,9.454380,1.375922, 
362492,-2.026793,9.090658,1.361565, 
362571,-2.239762,9.638634,1.258670, 
362650,-2.266084,9.021263,1.045701, 
362730,-2.522125,9.207911,0.954770, 
362809,-2.732701,9.313198,1.524282, 
362888,-2.084223,8.853760,0.777695, 
362968,-2.144046,9.542917,1.452495, 
363047,-2.550840,9.270126,1.454888, 
363126,-1.990900,9.361056,1.270634, 
363206,-2.211047,9.164838,1.069630, 
363286,-2.368979,9.332341,1.299349, 
363365,-2.357014,9.296448,1.081594, 
363444,-2.390515,9.349092,1.134238, 
363523,-2.261298,9.327556,1.177311, 
363603,-2.328300,9.478309,1.179704, 
363682,-2.261298,9.389771,1.292170, 
363761,-2.160796,9.270126,1.136631, 
363841,-2.081830,9.346699,1.280206, 
363920,-1.976542,9.406522,1.174918, 
364000,-1.847325,9.296448,1.282599, 
364079,-1.902362,9.270126,1.351993, 
364159,-1.835361,9.535739,1.402244, 
364238,-1.852111,9.351485,1.229955, 
364317,-1.832968,9.365842,1.131845, 
364396,-1.935863,9.389771,1.141417, 
364476,-1.876040,9.449594,1.239526, 
364555,-1.919112,9.425665,1.186882, 
364634,-1.897576,9.377807,1.194061, 
364714,-1.914326,9.373021,1.320885, 
364793,-1.866468,9.346699,1.112702, 
364873,-1.830575,9.483095,1.215597, 
364952,-1.866468,9.327556,1.277813, 
365032,-1.842539,9.368236,1.244312, 
365111,-1.849718,9.404129,1.395065, 
365190,-1.789895,9.423272,1.344814, 
365269,-1.761180,9.394557,1.423780, 
365349,-1.754002,9.413700,1.531461, 
365428,-1.691786,9.437630,1.421387, 
365507,-1.617606,9.473523,1.497960, 
365586,-1.598463,9.392164,1.368743, 
365666,-1.694179,9.420879,1.663071, 
365746,-1.713322,9.461558,1.414209, 
365825,-1.679821,9.353878,1.459674, 
365905,-1.596070,9.425665,1.555390, 
365984,-1.586498,9.423272,1.536247, 
366063,-1.574534,9.394557,1.548212, 
366142,-1.531461,9.401736,1.586498, 
366222,-1.519497,9.420879,1.651107, 
366301,-1.517104,9.377807,1.572141, 
366380,-1.521890,9.346699,1.612820, 
366459,-1.493175,9.239018,1.586498, 
366539,-1.507532,9.528560,1.660678, 
366619,-1.588891,9.418487,1.703751, 
366698,-1.591284,9.389771,1.648714, 
366778,-1.593677,9.473523,1.608034, 
366857,-1.514711,9.368236,1.569748, 
366936,-1.564962,9.404129,1.593677, 
367015,-1.672643,9.408915,1.555390, 
367095,-1.605641,9.411307,1.646321, 
367174,-1.584105,9.509417,1.576926, 
367253,-1.706143,9.320377,1.533854, 
367333,-1.622392,9.518989,1.641535, 
367413,-1.687000,9.399343,1.502746, 
367492,-1.739644,9.420879,1.684607, 
367571,-1.646321,9.346699,1.572141, 
367651,-1.586498,9.389771,1.552997, 
367730,-1.624785,9.306020,1.579319, 
367809,-1.605641,9.365842,1.612820, 
367888,-1.675036,9.346699,1.433352, 
367968,-1.653499,9.361056,1.612820, 
368047,-1.687000,9.444808,1.478817, 
368126,-1.715715,9.440022,1.555390, 
368206,-1.698965,9.406522,1.605641, 
368286,-1.529068,9.451987,1.493175, 
368365,-1.610427,9.420879,1.658285, 
368444,-1.557783,9.382592,1.629570, 
368524,-1.562569,9.411307,1.643928, 
368603,-1.588891,9.411307,1.612820, 
368682,-1.586498,9.411307,1.658285, 
368761,-1.651107,9.234232,1.639142, 
368841,-1.603248,9.432844,1.658285, 
368920,-1.608034,9.341913,1.576926, 
369000,-1.710929,9.480701,1.572141, 
369079,-1.636749,9.401736,1.524282, 
369159,-1.756395,9.418487,1.545819, 
369238,-1.768359,9.404129,1.478817, 
369317,-1.739644,9.437630,1.342421, 
369396,-1.840146,9.420879,1.363958, 
369476,-1.821003,9.492666,1.332850, 
369555,-1.849718,9.394557,1.249098, 
369634,-1.859290,9.406522,1.249098, 
369713,-1.871254,9.466345,1.354386, 
369793,-1.768359,9.399343,1.299349, 
369873,-1.727680,9.401736,1.380708, 
369952,-1.694179,9.332341,1.519497, 
370032,-1.663071,9.207911,1.543426, 
370111,-1.775538,9.612311,1.629570, 
370190,-1.428566,9.375414,1.529068, 
370269,-1.165346,9.373021,1.569748, 
370349,-1.009807,9.545310,1.610427, 
370428,-0.933234,9.408915,1.935863, 
370507,-1.263456,9.382592,2.191904, 
370586,-0.945199,9.387379,2.462302, 
370666,-0.971521,9.322770,2.469481, 
370746,-1.196454,9.009299,2.476660, 
370825,-0.758552,9.660170,2.481446, 
370904,-0.327828,9.772636,2.232583, 
370984,-0.720265,8.987762,1.749216, 
371063,0.210576,8.664721,1.689393, 
371142,0.892555,9.916211,1.710929, 
371222,0.593441,9.887496,1.701358, 
371301,0.636514,8.604897,1.945434, 
371380,-0.435509,8.956655,1.847325, 
371459,0.579084,9.858782,0.818375, 
371539,2.048329,8.999727,2.658521, 
371619,0.291935,10.868588,1.938256, 
371698,0.794446,9.119372,1.296956, 
371777,1.172525,9.588383,1.730072, 
371857,1.098345,9.308413,1.392673, 
371936,2.036365,9.437630,1.186882, 
372015,1.462067,9.595561,1.265848, 
372094,2.218226,9.284483,1.409423, 
372174,1.387887,9.772636,1.667857, 
372253,0.165111,9.262947,1.576926, 
372333,-0.294328,9.590775,1.469246, 
372413,-0.373294,8.932726,1.682214, 
372492,-1.560176,9.253376,1.466853, 
372571,-1.636749,9.516596,1.076809, 
372650,-2.617841,9.968855,1.488389, 
372730,-2.378551,9.399343,1.124667, 
372809,-1.722894,9.588383,1.509925, 
372888,-1.521890,9.588383,1.679821, 
372967,-1.385494,9.435237,2.069865, 
373047,-1.273027,9.186374,1.928684, 
373126,-1.385494,9.337128,1.976542, 
373206,-1.373529,9.210303,1.852111, 
373286,-0.710694,9.301233,2.440766, 
373365,-0.914091,9.430450,1.911934, 
373444,-0.488153,9.301233,2.316335, 
373523,-0.313471,9.370628,1.957399, 
373603,-0.067001,9.413700,2.077044, 
373682,0.167504,9.416093,1.768359, 
373761,0.452260,9.353878,1.844932, 
373840,0.710694,9.688885,2.089009, 
373920,0.765731,9.696064,1.701358, 
374000,0.610192,9.796566,2.031579, 
374079,1.028950,9.449594,1.871254, 
374158,1.263456,9.449594,2.100973, 
374238,1.067237,9.789387,2.074651, 
374317,0.440295,9.059550,1.952613, 
374396,0.157932,9.195946,2.304370, 
374476,0.282363,9.547704,2.297192, 
374555,0.337400,9.181588,2.491017, 
374634,0.253648,9.346699,2.230190, 
374713,0.031108,9.346699,2.646556, 
374793,0.155539,9.373021,2.474267, 
374873,-0.011965,9.380199,2.208654, 
374952,-0.232112,9.456773,2.323514, 
375031,-0.088538,9.411307,2.359407, 
375111,-0.167504,9.370628,2.321121, 
375190,-0.232112,9.358664,2.538876, 
375269,-0.296721,9.351485,2.589127, 
375349,-0.330221,9.296448,2.481446, 
375428,-0.440295,9.322770,2.567590, 
375507,-0.277577,9.322770,2.636985, 
375586,-0.086145,9.329948,2.464695, 
375666,-0.172289,9.341913,2.481446, 
375746,-0.196218,9.315591,2.699200, 
375825,-0.220148,9.392164,2.627413, 
375904,-0.145967,9.296448,2.385729, 
375984,-0.189040,9.399343,2.368979, 
376063,-0.169896,9.408915,2.651342, 
376142,-0.153146,9.344306,2.349836, 
376222,-0.078966,9.394557,2.445552, 
376301,-0.107681,9.363449,2.383337, 
376380,-0.038287,9.363449,2.366586, 
376459,-0.083752,9.401736,2.359407, 
376539,-0.083752,9.401736,2.311549, 
376619,0.026322,9.449594,2.299585, 
376698,0.047858,9.440022,2.301978, 
376777,0.016750,9.425665,2.366586, 
376857,0.045465,9.442415,2.153617, 
376936,0.040679,9.440022,2.290013, 
377015,0.081359,9.454380,2.211047, 
377094,-0.011965,9.463951,2.110545, 
377174,-0.038287,9.416093,2.167975, 
377253,-0.107681,9.404129,2.227798, 
377333,-0.074180,9.533346,2.191904, 
377413,-0.040679,9.317985,2.041151, 
377492,0.007179,9.440022,2.354622, 
377571,-0.007179,9.377807,2.275656, 
377650,-0.062216,9.282090,2.311549, 
377730,-0.011965,9.411307,2.349836, 
377809,-0.035894,9.399343,2.244548, 
377888,-0.076573,9.523774,2.275656, 
377967,-0.153146,9.394557,2.112938, 
378047,-0.107681,9.471130,2.254119, 
378126,-0.153146,9.423272,2.234976, 
378206,-0.189040,9.349092,2.483839, 
378285,-0.160325,9.377807,2.194297, 
378365,-0.069394,9.301233,2.421623, 
378444,-0.093323,9.260554,1.560176, 
378523,-0.016750,9.207911,1.529068, 
378603,0.378079,9.645813,1.045701, 
378682,2.201475,9.999963,2.096188, 
378761,1.813824,9.528560,1.660678, 
378840,1.756395,9.538132,1.452495, 
378920,2.160796,9.456773,1.569748, 
379000,2.163189,9.418487,1.507532, 
379079,2.481446,9.375414,1.876040, 
379158,0.555155,10.047821,1.665464, 
379238,0.169896,9.172017,1.407030, 
379317,-0.528833,9.691278,1.397458, 
379396,-2.768595,9.387379,2.151224, 
379475,-2.069865,8.698221,1.859290, 
379555,-0.914091,8.980584,1.682214, 
379634,-1.196454,9.617098,1.768359, 
379713,-1.021772,9.286877,1.663071, 
379793,-1.024165,9.633848,1.957399, 
379873,-1.177311,9.846817,2.002864, 
379952,-0.141182,10.076536,1.821003, 
380031,-0.533619,9.995177,2.368979, 
380111,-0.914091,11.325634,1.172525, 
380190,0.368508,7.279226,0.437902, 
380269,-0.210576,10.162681,0.411580, 
380348,-0.457045,9.729565,1.052880, 
380428,0.148360,7.987527,1.739644, 
380507,0.538404,9.741529,2.206261, 
380586,0.804017,8.250747,1.852111, 
380666,0.488153,9.846817,2.301978, 
380746,0.416366,10.504867,3.105995, 
380825,0.308685,11.031306,2.146439, 
380904,-2.165582,8.894440,-1.608034, 
380984,0.071787,9.229446,1.191668, 
381063,-0.574298,10.311041,0.959556, 
381142,-1.462067,6.532639,2.452731, 
381221,-0.638906,9.578811,1.622392, 
381301,-0.251255,9.652991,1.952613, 
381380,0.964342,10.253612,2.775773, 
381459,-0.863840,12.892989,1.452495, 
381539,0.509689,6.075593,1.215597, 
381619,0.753766,10.289505,0.811196, 
381698,1.222776,9.662563,1.337636, 
381777,0.636514,8.071279,2.412051, 
381857,-0.693943,9.777423,1.318492, 
381936,1.739644,9.770244,0.969128, 
382015,0.129217,9.655384,3.213675, 
382094,-0.796838,11.777894,-1.052880, 
382174,-2.292406,6.482388,2.081830, 
382253,-1.789895,10.157895,1.550604, 
382333,-2.318728,10.591011,1.119881, 
382412,-3.476896,7.477838,2.268477, 
382492,-2.177546,9.636241,1.454888, 
382571,-1.268241,9.815709,1.732466, 
382650,0.720265,10.519224,0.703515, 
382730,-1.273027,10.576653,0.586262, 
382809,-0.342186,8.121531,0.114860, 
382888,1.328064,11.043271,0.744194, 
382967,0.878197,8.430215,1.710929, 
383047,0.827946,8.286641,0.423545, 
383126,0.777695,10.382828,0.748980, 
383206,1.265848,8.971012,0.476189, 
383285,2.328300,10.854231,0.380472, 
383365,0.897341,9.399343,0.007179, 
383444,-2.074651,9.612311,0.437902, 
383523,-0.973914,9.612311,0.291935, 
383602,-1.998078,9.688885,1.194061, 
383682,-2.431195,9.731957,1.507532, 
383761,-2.632199,9.016478,1.687000, 
383840,-2.447945,9.356271,1.533854, 
383920,-2.017221,8.994942,1.576926, 
384000,-2.735094,8.947083,1.641535, 
384079,-2.251727,9.583597,1.744430, 
384158,-0.296721,9.528560,1.378315, 
384238,0.579084,8.504395,2.256512, 
384317,0.452260,10.598190,2.426409, 
384396,0.203397,9.262947,1.507532, 
384476,1.301742,9.064336,1.885612, 
384555,0.878197,9.411307,1.493175, 
384634,0.638906,9.679314,1.177311, 
384713,1.241919,9.739136,1.143810, 
384793,1.182097,9.796566,1.311314, 
384873,1.426173,9.585990,0.938020, 
384952,0.531226,9.566847,1.411816, 
385031,-0.172289,9.148088,1.316099, 
385111,-0.143574,9.102622,0.990664, 
385190,-1.241919,9.478309,0.648478, 
385269,-0.464224,10.832695,1.677429, 
385348,-1.340029,10.418722,0.897341, 
385428,-2.591519,8.561825,1.718108, 
385507,-2.438373,9.210303,1.217990, 
385586,-1.095952,8.377571,0.799231, 
385666,-2.275656,9.552489,1.617606, 
385746,-1.450102,9.667349,1.514711, 
385825,-0.526440,9.684099,0.818375, 
385904,-1.232348,8.609683,0.047858, 
385984,-1.110309,10.744158,1.371136, 
386063,-2.354622,9.830067,1.093559, 
386142,-1.435745,8.980584,0.799231, 
386221,-0.873411,10.528795,0.358936, 
386301,-0.559941,9.231839,1.086380, 
386380,0.234505,8.918368,1.598463, 
386459,0.619763,9.820495,1.189275, 
386539,0.894948,9.016478,1.323278, 
386619,1.115095,10.756122,0.914091, 
386698,0.591048,8.332106,1.883219, 
386777,1.031343,9.485488,1.665464, 
386857,1.170132,9.684099,0.753766, 
386936,0.583870,9.837245,0.375687, 
387015,0.830339,9.856388,-0.169896, 
387094,0.349365,9.499846,-0.222540, 
387174,-1.765966,10.265575,-0.792053, 
387253,-1.840146,10.665192,1.517104, 
387333,-1.694179,9.916211,-0.342186, 
387412,-2.096188,8.401501,1.591284, 
387492,-2.560412,9.492666,0.832732, 
387571,-2.062687,9.265340,-0.808803, 
387650,-2.491017,9.873138,1.069630, 
387730,-2.613056,8.959048,0.335007, 
387809,-0.325435,9.064336,0.648478, 
387888,-0.837518,11.450066,-1.634356, 
387967,-1.402244,10.832695,-0.141182, 
388047,-3.579791,7.848739,2.500589, 
388126,-3.381179,9.629062,-1.275420, 
388206,-0.916484,8.193317,0.665228, 
388285,-1.610427,10.545546,0.303899, 
388365,-0.014357,9.578811,0.516868, 
388444,2.464695,11.703713,0.660443, 
388523,1.019379,9.344306,0.538404, 
388602,0.134003,8.619255,0.942806, 
388682,0.820767,10.090894,0.662836, 
388761,1.112702,8.978191,0.100502, 
388840,2.390515,9.889889,0.708301, 
388919,0.744194,10.124394,1.232348, 
388999,1.706143,9.885103,1.337636, 
389079,0.564726,9.157660,1.904755, 
389158,0.023929,9.026050,0.222540, 
389238,1.127060,9.593168,1.490782, 
389317,1.739644,9.550097,1.340029, 
389396,1.174918,10.191396,1.605641, 
389475,1.351993,9.341913,1.581712, 
389555,1.454888,9.514202,1.454888, 
389634,0.796838,9.164838,1.849718, 
389713,0.624549,9.160052,2.022007, 
389792,-0.107681,11.028913,1.792288, 
389872,-0.667621,7.635770,1.447709, 
389952,-0.705908,10.717835,1.351993, 
390031,-0.593441,8.805902,2.390515, 
390110,-0.385258,9.593168,1.316099, 
390190,-1.217990,9.325163,1.751609, 
390269,-1.385494,9.516596,1.608034, 
390348,-1.430959,9.485488,1.899969, 
390428,-1.371136,9.803744,1.962185, 
390507,-1.383101,9.600348,2.318728, 
390586,-1.076809,9.454380,1.876040, 
390666,-1.167739,8.925548,2.349836, 
390746,-0.923663,9.425665,2.179939, 
390825,-0.050251,9.420879,2.055508, 
390904,-0.134003,9.090658,2.357014, 
390983,0.366115,9.703242,2.232583, 
391063,0.210576,9.239018,2.440766, 
391142,0.172289,9.497452,2.172760, 
391221,0.232112,9.389771,2.392908, 
391300,0.224933,9.435237,2.206261, 
391380,0.177075,9.406522,2.357014, 
391459,0.191433,9.480701,1.990900, 
391539,0.145967,9.200731,2.292406, 
391618,0.227326,9.428058,2.275656, 
391698,0.105288,9.698457,2.261298, 
391777,0.275184,9.169623,2.285227, 
391856,0.011965,9.492666,2.416837, 
391936,0.100502,9.337128,2.447945, 
392015,-0.081359,9.267733,2.294799, 
392094,-0.026322,9.473523,2.122509, 
392173,-0.095716,9.258162,2.057901, 
392253,-0.251255,9.741529,2.160796, 
392333,0.062216,9.152873,1.749216, 
392412,0.279970,9.162445,2.421623, 
392491,-0.251255,9.906639,2.275656, 
392571,0.052644,8.841795,2.057901, 
392650,0.071787,9.803744,1.737251, 
392729,-0.028715,9.081086,2.239762, 
392809,0.019143,9.717600,1.768359, 
392888,0.564726,9.296448,2.524518, 
392967,-0.165111,9.803744,1.907148, 
393046,0.136396,9.782208,2.191904, 
393126,0.086145,8.868117,1.806646, 
393206,0.026322,9.607526,2.045936, 
393285,-0.160325,9.736743,1.653499, 
393364,0.150753,9.588383,1.701358, 
393444,-0.275184,9.471130,2.105759, 
393523,-0.327828,9.502238,2.129688, 
393602,-0.007179,9.588383,1.864075, 
393681,-0.119645,9.229446,2.696807, 
393761,-0.447474,9.571632,1.734858, 
393840,-0.203397,9.270126,2.445552, 
393919,-0.059823,9.447201,2.584341, 
393999,-0.088538,9.265340,1.885612, 
394079,-0.093323,9.442415,2.598698, 
394158,-0.064609,9.248590,2.223012, 
394237,-0.067001,9.346699,2.352229, 
394317,0.021536,9.260554,2.352229, 
394396,0.002393,9.485488,2.251727, 
394475,-0.095716,9.332341,2.258905, 
394554,-0.138789,9.449594,2.237369, 
394634,-0.177075,9.363449,2.364193, 
394713,-0.210576,9.272519,2.019614, 
394792,-0.330221,9.495059,2.493410, 
394872,-0.136396,9.375414,2.340264, 
394952,-0.138789,9.447201,2.282834, 
395031,-0.162718,9.416093,2.335478, 
395110,-0.062216,9.334735,2.069865, 
395190,-0.191433,9.365842,2.285227, 
395269,-0.014357,9.440022,2.287620, 
395348,-0.083752,9.387379,2.167975, 
395427,-0.411580,9.365842,2.017221, 
395507,-0.038287,9.507024,1.871254, 
395586,-0.268006,9.569240,1.926291, 
395666,-0.291935,9.473523,1.622392, 
395745,-0.224933,9.492666,1.806646, 
395825,-0.241684,9.495059,1.701358, 
395904,-0.251255,9.509417,1.675036, 
395983,-0.263220,9.454380,1.596070, 
396062,-0.222540,9.719993,1.569748, 
396142,-0.337400,9.480701,1.588891, 
396221,-0.232112,9.471130,1.598463, 
396300,-0.191433,9.633848,1.550604, 
396380,-0.203397,9.574025,1.593677, 
396459,-0.201004,9.518989,1.710929, 
396539,-0.153146,9.530953,1.921505, 
396618,-0.260827,9.650599,1.703751, 
396698,-0.162718,9.504631,1.739644, 
396777,-0.208183,9.526167,1.732466, 
396856,-0.248862,9.535739,1.720501, 
396935,-0.244077,9.533346,1.902362, 
397015,-0.212969,9.435237,1.935863, 
397094,-0.198611,9.518989,1.710929, 
397173,-0.198611,9.502238,2.022007, 
397253,-0.160325,9.466345,1.983721, 
397333,-0.251255,9.514202,2.132081, 
397412,-0.320650,9.394557,2.089009, 
397491,-0.270399,9.423272,1.952613, 
397571,-0.189040,9.509417,2.060294, 
397650,-0.110074,9.468738,2.098580, 
397729,-0.086145,9.423272,2.089009, 
397808,-0.117252,9.497452,1.945434, 
397888,-0.145967,9.700850,2.287620, 
397967,0.165111,9.650599,1.921505, 
398046,0.220148,9.370628,1.588891, 
398125,-0.124431,9.468738,2.337871, 
398205,-0.212969,9.332341,2.459909, 
398285,-0.861447,9.638634,2.541268, 
398364,0.021536,8.760436,2.239762, 
398444,-0.294328,9.758279,2.388122, 
398523,0.000000,9.073908,2.371372, 
398602,0.076573,9.322770,2.404873, 
398681,0.837518,9.645813,1.816217, 
398761,-0.071787,9.530953,1.969363, 
398840,-0.277577,9.614705,2.258905, 
398919,-0.311078,9.258162,2.385729, 
398999,-0.366115,9.344306,2.869097, 
399079,-0.107681,9.306020,2.258905, 
399158,-0.670014,9.231839,2.912169, 
399237,-0.162718,9.368236,2.514946, 
399316,0.069394,9.361056,2.445552, 
399396,0.406794,9.652991,2.397694, 
399475,-0.076573,9.380199,2.447945, 
399554,0.095716,9.451987,2.103366, 
399634,0.129217,9.432844,2.019614, 
399713,-0.021536,9.538132,2.072258, 
399792,-0.392437,9.516596,2.055508, 
399872,-0.406794,9.492666,2.175153, 
399952,-0.670014,9.418487,2.179939, 
400031,-0.698729,9.437630,2.321121, 
400110,-0.650871,9.440022,2.089009, 
400189,-0.562333,9.416093,2.270870, 
400269,-0.354150,9.428058,2.187118, 
400348,-0.179468,9.404129,2.122509, 
400427,-0.134003,9.396950,2.187118, 
400507,-0.090931,9.437630,2.170368, 
400586,-0.150753,9.468738,2.017221, 
400666,-0.308685,9.408915,2.144046, 
400745,-0.583870,9.428058,2.297192, 
400825,-0.612584,9.535739,2.069865, 
400904,-0.641299,9.358664,2.261298, 
400983,-0.708301,9.432844,2.158403, 
401062,-0.646085,9.420879,2.201475, 
401142,-0.559941,9.463951,2.172760, 
401221,-0.437902,9.394557,2.215833, 
401300,-0.232112,9.396950,2.122509, 
401379,-0.260827,9.495059,2.292406, 
401459,-0.260827,9.332341,2.184725, 
401539,-0.229719,9.432844,2.022007, 
401618,-0.337400,9.466345,2.151224, 
401698,-0.344579,9.463951,2.335478, 
401777,-0.358936,9.454380,2.184725, 
401856,-0.356543,9.375414,2.206261, 
401935,-0.289542,9.435237,2.148831, 
402015,-0.263220,9.490273,2.136867, 
402094,-0.239291,9.471130,2.112938, 
402173,-0.153146,9.454380,2.012436, 
402252,-0.064609,9.538132,2.002864, 
402332,-0.157932,9.399343,2.151224, 
402412,-0.155539,9.530953,2.148831, 
402491,-0.086145,9.413700,2.115331, 
402571,-0.119645,9.468738,2.002864, 
402650,-0.203397,9.495059,2.208654, 
402729,-0.215362,9.361056,2.179939, 
402808,-0.210576,9.392164,2.156010, 
402888,-0.224933,9.387379,2.359407, 
402967,-0.339793,9.313198,2.266084, 
403046,-0.521654,9.317985,2.328300, 
403125,-0.576691,9.358664,2.553233, 
403205,-0.780088,9.375414,2.431195, 
403285,-0.643692,9.317985,2.433588, 
403364,-0.957163,9.370628,2.519732, 
403443,-0.859054,9.339520,2.273263, 
403523,-0.933234,9.440022,2.380944, 
403602,-0.751373,9.337128,2.177546, 
403681,-0.681979,9.365842,2.268477, 
403761,-0.638906,9.404129,2.318728, 
403840,-0.579084,9.425665,2.194297, 
403919,-0.607799,9.411307,2.191904, 
403999,-0.504904,9.437630,2.211047, 
404079,-0.495332,9.358664,2.151224, 
404158,-0.483367,9.451987,2.144046, 
404237,-0.433116,9.413700,2.079437, 
404316,-0.337400,9.384986,2.017221, 
404396,-0.378079,9.554882,2.223012, 
404475,-0.272792,9.423272,1.959792, 
404554,-0.490546,9.502238,2.079437, 
404633,-0.339793,9.485488,1.878433, 
404713,-0.050251,9.399343,2.091402, 
404792,0.071787,9.542917,2.053115, 
404872,0.019143,9.449594,2.053115, 
404951,-0.129217,9.540524,2.036365, 
405031,-0.227326,9.530953,2.002864, 
405110,-0.294328,9.428058,2.199083, 
405189,-0.313471,9.356271,2.215833, 
405268,-0.263220,9.356271,1.995685, 
405348,-0.299114,9.485488,2.139260, 
405427,-0.268006,9.368236,2.129688, 
405506,-0.201004,9.461558,1.974149, 
405586,-0.246470,9.430450,2.165582, 
405666,-0.248862,9.459166,2.084223, 
405745,-0.189040,9.435237,2.065080, 
405824,-0.143574,9.406522,2.060294, 
405904,-0.141182,9.442415,2.041151, 
405983,-0.258434,9.471130,1.933470, 
406062,-0.043072,9.559668,1.945434, 
406141,-0.114860,9.442415,1.995685, 
406221,-0.244077,9.507024,2.136867, 
406300,-0.287149,9.502238,1.981328, 
406379,-0.311078,9.504631,1.966970, 
406459,-0.411580,9.444808,1.978935, 
406539,-0.409187,9.466345,2.108152, 
406618,-0.497725,9.463951,2.146439, 
406697,-0.557548,9.401736,2.165582, 
406777,-0.500118,9.401736,2.170368, 
406856,-0.526440,9.389771,2.165582, 
406935,-0.437902,9.401736,2.208654, 
407014,-0.425938,9.365842,2.124902, 
407094,-0.476189,9.418487,2.100973, 
407173,-0.526440,9.547704,2.182332, 
407252,-0.406794,9.401736,1.990900, 
407332,-0.504904,9.497452,2.079437, 
407412,-0.536011,9.428058,2.055508, 
407491,-0.552762,9.440022,2.048329, 
407570,-0.473796,9.471130,2.041151, 
407650,-0.366115,9.461558,1.978935, 
407729,-0.342186,9.463951,2.103366, 
407808,-0.193826,9.447201,2.074651, 
407887,0.275184,9.566847,2.191904, 
407967,0.571905,9.262947,2.000471, 
408046,0.490546,9.085872,1.928684, 
408125,0.303899,9.595561,1.859290, 
408205,-0.047858,9.382592,1.687000, 
408285,-1.093559,9.224661,1.186882, 
408364,-2.443159,9.097836,1.299349, 
408443,-1.208419,10.531189,1.574534, 
408523,-1.210811,8.851367,1.359172, 
408602,-1.993292,9.272519,0.961949, 
408681,-1.832968,9.949712,1.258670, 
408760,-2.213440,10.626904,0.258434, 
408840,-1.907148,10.069357,0.469010, 
408919,-1.854504,10.095679,0.598227, 
408999,-0.201004,8.578575,-0.390044, 
409078,-1.060058,7.441944,1.521890, 
409158,-0.823160,11.349563,2.785345, 
409237,0.181861,9.301233,2.572376, 
409316,0.069394,8.918368,0.641299, 
409396,0.614977,11.292133,2.038758, 
409475,0.837518,8.719757,1.981328, 
409554,-0.777695,8.569004,-1.234741, 
409633,-0.701122,7.815238,1.828182, 
409713,-1.390280,13.113136,2.797310, 
409792,2.108152,6.542211,-0.670014, 
409872,-1.222776,12.993491,3.189746, 
409951,-1.734858,8.327320,1.983721, 
410031,0.665228,9.294055,-1.533854, 
410110,0.038287,6.049272,0.677193, 
410189,0.093323,15.190181,1.129453, 
410268,-1.395065,5.154324,-0.023929, 
410348,0.588655,11.361527,0.808803, 
410427,1.852111,11.086343,0.641299, 
410506,-0.270399,8.913583,0.650871, 
410585,0.976306,9.511809,0.114860, 
410665,1.976542,8.772401,-1.232348, 
410745,-1.768359,9.832459,3.149067, 
410824,-0.562333,11.674998,3.646792, 
410904,0.725051,6.334028,0.251255, 
410983,-1.775538,12.144009,2.826025, 
411062,-2.376158,9.710421,1.452495, 
411141,0.306292,8.789151,1.162953, 
411221,-1.143810,8.334499,0.722658, 
411300,0.335007,8.272284,-1.947827, 
411379,0.251255,12.371335,3.225640, 
411459,0.150753,10.981055,1.931077, 
411539,-0.806410,5.580262,0.291935, 
411618,1.782717,13.230389,0.988271, 
411697,0.737016,9.999963,1.208419, 
411777,-0.112467,7.657306,0.770516, 
411856,0.270399,9.899461,0.725051, 
411935,0.524047,6.810216,0.607799, 
412014,-0.746587,13.318927,3.038993, 
412094,1.840146,8.719757,1.045701, 
412173,-0.485760,8.396714,2.871490, 
412252,-1.136631,10.930804,2.337871, 
412332,-0.952377,10.990627,0.926055, 
412412,-0.469010,8.920761,1.354386, 
412491,-1.074416,8.444572,-0.232112, 
412570,0.253648,8.056922,0.004786, 
412650,-1.107916,13.024599,2.658521, 
412729,0.402009,9.334735,2.110545, 
412808,-0.344579,7.918133,1.273027, 
412887,1.481210,12.079400,0.485760, 
412967,-0.459438,8.691042,1.048094, 
413046,1.351993,9.234232,1.344814, 
413125,0.638906,8.913583,-0.471403, 
413205,-1.347207,9.904246,1.990900, 
413285,-0.638906,11.505102,2.325907, 
413364,0.378079,7.025578,2.419230, 
413443,-0.789660,10.337363,2.316335, 
413523,-1.363958,9.897068,2.569983, 
413602,-1.232348,9.849210,2.352229, 
413681,-0.689158,9.222268,2.435980, 
413760,-0.938020,8.801116,1.320885, 
413840,-0.425938,9.222268,-0.698729, 
413919,1.155775,9.538132,2.225405, 
413999,0.813589,10.277540,2.404873, 
414079,-0.050251,8.461323,2.129688, 
414158,-0.492939,10.559903,1.330457, 
414237,3.161031,9.985605,0.753766, 
414316,0.107681,9.483095,2.634592, 
414396,0.306292,8.992549,1.749216, 
414475,0.536011,7.985134,0.830339, 
414554,0.811196,9.425665,1.115095, 
414633,0.234505,11.710893,3.321357, 
414713,0.641299,9.437630,1.823396, 
414792,-0.796838,7.867882,2.869097, 
414872,-1.524282,9.901854,2.223012, 
414952,-2.859525,10.803980,1.397458, 
415031,-0.607799,8.966227,2.756630, 
415110,-1.253884,8.403893,0.949984, 
415189,-1.172525,9.966462,0.375687, 
415269,0.610192,8.609683,0.416366, 
415348,0.153146,11.124630,3.699436, 
415427,0.189040,9.983212,2.309156, 
415506,-0.067001,7.903775,1.852111, 
415586,1.665464,11.170095,2.160796, 
415666,1.292170,9.035621,1.043308, 
415745,0.028715,9.174410,2.742273, 
415825,0.995450,9.566847,1.521890, 
415904,0.949984,8.085636,0.358936, 
415983,-1.050487,9.758279,2.251727, 
416062,-0.119645,10.906875,2.885847, 
416142,0.201004,8.269891,1.943041, 
416221,-0.751373,9.767851,2.414444, 
416300,-2.543661,9.700850,1.392673, 
416379,-0.110074,9.449594,1.174918, 
416459,-0.622156,9.411307,3.457752, 
416539,-1.821003,9.552489,1.009807, 
416618,0.315864,8.741293,1.076809, 
416697,0.794446,9.401736,0.799231, 
416777,0.057430,10.696300,2.254119, 
416856,0.516868,8.803509,2.132081, 
416935,1.162953,9.696064,1.976542, 
417015,1.404637,8.004277,2.103366, 
417094,0.794446,9.968855,1.821003, 
417173,1.344814,9.358664,1.983721, 
417252,1.062451,9.832459,2.041151, 
417332,-0.100502,12.732664,-0.239291, 
417412,-0.677193,7.640555,0.646085, 
417491,-1.562569,9.248590,0.387651, 
417570,-0.746587,10.976270,0.815982, 
417650,-1.217990,7.260083,1.225169, 
417729,-1.569748,9.870746,1.806646, 
417808,-1.349600,8.815474,1.811431, 
417888,-1.064844,9.554882,1.536247, 
417967,-0.923663,9.729565,1.873647, 
418046,-0.772909,11.026521,1.107916, 
418125,-1.452495,10.739371,0.100502, 
418205,0.057430,7.094973,0.768124, 
418285,0.098109,9.913818,-0.009572, 
418364,0.490546,10.598190,1.608034, 
418443,-0.543190,8.262712,0.681979, 
418523,0.394830,9.131337,1.474031, 
418602,-0.138789,8.860939,1.002628, 
418681,-0.241684,9.102622,0.102895, 
418761,-1.253884,10.459401,0.784874, 
418840,-2.591519,8.387143,-2.223012, 
418919,-3.321357,9.014085,-4.242626, 
418999,-2.797310,10.593404,-3.749687, 
419079,-3.371608,8.171782,-3.326142, 
419158,-2.756630,9.224661,-4.357486, 
419237,-3.338107,8.963834,-3.582183, 
419316,-2.467088,8.492431,-3.697043, 
419396,-1.883219,9.540524,-3.962656, 
419475,-2.452731,7.619020,-2.852346, 
419554,-2.055508,6.972934,-2.718343, 
419633,-0.579084,8.466109,-2.847561, 
419713,-0.997843,6.458459,-2.768595, 
419792,-0.856661,6.714500,-3.843010, 
419872,-2.220619,7.887025,-3.012671, 
419952,0.279970,6.468030,-2.005257, 
420031,-0.464224,8.803509,-2.120116, 
420110,-0.136396,9.114587,-3.443395, 
420189,-3.656363,21.574459,-3.426644, 
420269,-0.440295,12.730271,3.122745, 
420348,0.318257,8.540289,0.004786, 
420427,-0.358936,6.642713,0.784874, 
420507,-0.878197,7.458694,-0.835125, 
420586,-1.335243,12.907347,2.419230, 
420666,-1.586498,8.681471,1.356779, 
420745,-0.320650,9.772636,1.902362, 
420825,-1.356779,9.128944,1.816217, 
420904,-0.741802,9.700850,3.017457, 
420983,-0.327828,10.071750,2.187118, 
421062,-1.153382,8.971012,2.608270, 
421142,-0.772909,8.834617,3.050958, 
421221,0.868626,9.590775,3.481681, 
421300,-0.136396,8.729329,3.441002, 
421380,-0.284756,8.896832,2.677664, 
421459,0.368508,9.279697,2.675271, 
421539,-0.619763,9.729565,3.747294, 
421618,-0.057430,9.308413,3.764045, 
421698,-0.442688,8.291427,4.520204, 
421777,0.074180,9.198339,3.677900, 
421856,0.301506,9.040407,3.053351, 
421935,0.184254,8.408679,3.105995, 
422015,0.100502,9.277305,4.206732, 
422094,-0.105288,9.016478,4.685314, 
422173,0.232112,8.724543,4.570455, 
422253,-0.155539,8.480466,3.828653, 
422333,0.519261,9.095444,3.275891, 
422412,0.258434,8.956655,3.764045, 
422491,-0.011965,9.210303,4.582419, 
422571,-0.169896,9.090658,4.115802, 
422650,0.028715,8.760436,4.111016, 
422729,0.380472,8.758043,3.586969, 
422808,0.134003,8.655149,3.706615, 
422888,-0.074180,9.011692,3.730544, 
422967,0.270399,8.645576,4.345521, 
423046,0.227326,8.793938,4.678135, 
423126,-0.083752,8.700614,4.419701, 
423206,0.193826,8.597719,3.886083, 
423285,0.583870,9.061943,3.429037, 
423364,0.306292,8.755651,3.756866, 
423444,0.358936,9.258162,4.266555, 
423523,-0.107681,8.894440,4.132552, 
423602,-0.665228,8.896832,4.656599, 
423681,0.143574,9.289269,4.142124, 
423761,0.272792,8.274676,3.740115, 
423840,0.059823,8.652756,3.457752, 
423919,0.299114,9.521381,4.479524, 
423999,-0.043072,8.502003,4.290484, 
424079,-0.043072,8.734115,4.546525, 
424158,0.325435,8.499610,4.003335, 
424237,0.440295,8.712579,3.285463, 
424317,-0.047858,9.227054,3.716186, 
424396,0.380472,9.176803,3.831046, 
424475,-0.004786,9.432844,3.948298, 
424554,-0.296721,8.729329,3.517575, 
424634,-0.289542,9.140909,3.283070, 
424713,-0.033501,9.243804,2.995921, 
424792,-0.093323,9.212696,3.309392, 
424872,0.141182,9.100229,3.443395, 
424952,0.174682,8.750865,3.656363, 
425031,0.009572,9.473523,3.835832, 
425110,-0.191433,8.743686,3.070101, 
425189,0.081359,8.786758,2.467088, 
425269,0.282363,9.514202,2.625020, 
425348,0.222540,9.638634,3.445788, 
425427,-0.033501,9.006907,3.639613, 
425507,-0.380472,9.507024,3.426644, 
425586,-0.167504,8.954262,2.921741, 
425666,-0.002393,9.054764,2.799702, 
425745,-0.258434,8.856153,2.976778, 
425825,-0.497725,9.451987,4.053586, 
425904,0.399616,9.169623,2.555626, 
425983,1.069630,8.004277,3.627649, 
426062,0.212969,10.004748,3.577398, 
426142,0.765731,9.284483,3.199318, 
426221,0.454653,9.241411,3.718579, 
426300,-0.390044,7.815238,3.919584, 
426379,-0.193826,9.509417,3.503217, 
426459,-1.512318,9.071514,3.840617, 
426539,0.483367,8.927940,3.263927, 
426618,0.737016,9.023657,3.551076, 
426698,-0.433116,9.499846,2.723130, 
426777,-0.201004,9.368236,4.008121, 
426856,-1.007414,7.791309,3.610898, 
426935,-0.746587,9.798959,2.275656, 
427015,-0.701122,9.540524,4.055979, 
427094,0.043072,8.487645,3.117959, 
427173,0.102895,8.870510,3.328535, 
427252,-0.543190,9.514202,2.608270, 
427332,0.198611,9.454380,3.563040, 
427412,-0.318257,8.504395,2.823632, 
427491,-0.851875,9.093051,2.529304, 
427571,-0.284756,9.810924,3.393144, 
427650,-0.569512,8.904011,3.244783, 
427729,0.598227,8.674292,2.617841, 
427808,0.220148,9.593168,2.897812, 
427888,-0.114860,9.485488,2.694415, 
427967,-0.067001,9.308413,2.435980, 
428046,-0.516868,9.193553,2.754237, 
428125,-0.691550,9.435237,2.445552, 
428205,-0.306292,9.483095,2.943277, 
428285,-0.399616,9.119372,2.687236, 
428364,0.418759,9.083479,2.065080, 
428443,0.062216,9.853995,2.342657, 
428523,-0.437902,9.705635,3.149067, 
428602,-0.373294,8.636005,2.311549, 
428681,-0.725051,9.112194,2.591519, 
428761,-0.545583,9.669742,2.249334, 
428840,-0.993057,9.093051,2.948063, 
428919,-0.315864,9.188767,2.584341, 
428999,0.090931,9.112194,2.852346, 
429079,-0.593441,9.626669,2.715951, 
429158,-0.528833,9.416093,2.883454, 
429237,-0.866233,9.344306,2.620234, 
429316,-0.973914,8.791544,2.802095, 
429396,-1.074416,9.894675,2.433588, 
429475,-0.993057,8.999727,2.622627, 
429554,-0.026322,9.133730,2.742273, 
429634,-0.011965,9.571632,2.263691, 
429713,-0.564726,9.136123,2.589127, 
429792,-0.811196,9.696064,3.096423, 
429872,-0.885376,9.538132,2.857132, 
429952,-1.246705,8.920761,3.046172, 
430031,-1.026558,9.401736,2.416837, 
430110,-0.916484,9.239018,2.376158, 
430189,-0.524047,8.614470,2.962420, 
430269,0.117252,9.932961,2.584341, 
430348,-0.411580,9.353878,2.526911, 
430427,-0.940413,9.341913,2.711165, 
430506,-0.715479,9.325163,2.818846, 
430586,-0.906912,9.595561,2.885847, 
430666,-0.981092,9.602740,2.459909, 
430745,-1.079202,8.705400,2.220619, 
430825,-0.191433,9.593168,3.244783, 
430904,0.358936,9.518989,3.165817, 
430983,-0.067001,9.368236,2.869097, 
431062,-0.964342,8.848974,2.775773, 
431142,-0.612584,9.607526,3.024636, 
431221,-0.952377,9.234232,3.199318, 
431300,-1.359172,9.550097,2.519732, 
431379,-1.146203,9.157660,2.452731, 
431459,-0.457045,9.296448,2.890633, 
431539,0.284756,9.502238,2.677664, 
431618,-0.227326,9.255769,3.029422, 
431698,-0.576691,9.265340,2.500589, 
431777,-0.792053,9.179195,2.861918, 
431856,-1.275420,9.143302,2.897812, 
431935,-1.375922,9.270126,2.742273, 
432015,-0.849482,9.447201,1.828182, 
432094,-0.447474,9.530953,2.809274, 
432173,-0.279970,9.059550,2.447945, 
432252,-0.067001,9.904246,2.467088, 
432332,-0.978699,9.255769,2.586734, 
432412,-0.988271,9.284483,2.593912, 
432491,-1.476424,8.901618,2.696807, 
432571,-1.162953,9.741529,2.321121, 
432650,-1.215597,9.119372,2.541268, 
432729,-0.679586,9.038013,2.318728, 
432808,0.201004,9.617098,2.316335, 
432888,-0.646085,9.463951,2.244548, 
432967,-0.827946,9.334735,2.383337, 
433046,-0.926055,9.306020,2.397694, 
433125,-1.447709,9.114587,3.086851, 
433205,-1.395065,9.734350,2.091402, 
433285,-1.397458,9.071514,2.328300, 
433364,-0.691550,9.069121,2.086616, 
433444,-0.136396,9.535739,2.452731, 
433523,-0.820767,9.655384,2.230190, 
433602,-1.028950,9.356271,2.629806, 
433681,-1.234741,9.313198,2.711165, 
433761,-1.426173,9.006907,2.144046, 
433840,-1.155775,9.724778,2.517339, 
433919,-1.196454,9.382592,2.306763, 
433999,-0.387651,9.033228,2.644163, 
434079,-0.464224,9.624276,2.364193, 
434158,-0.732230,9.540524,2.244548, 
434237,-1.005021,9.100229,2.318728, 
434317,-1.296956,9.212696,2.766202, 
434396,-1.407030,9.308413,2.383337, 
434475,-1.555390,9.703242,2.486232, 
434554,-0.849482,9.035621,2.191904, 
434634,-0.533619,8.978191,2.680057, 
434713,0.449867,9.877925,2.730308, 
434792,-0.504904,9.308413,2.246941, 
434872,-0.449867,9.277305,2.768595, 
434952,-1.258670,9.071514,2.639378, 
435031,-1.251491,9.621883,2.986349, 
435110,-1.524282,9.021263,2.438373, 
435189,-0.887769,9.363449,2.010043, 
435269,-0.528833,9.071514,3.192139, 
435348,0.177075,9.818102,2.591519, 
435427,-0.624549,8.865725,2.091402, 
435506,-0.332614,9.078693,2.050722, 
435586,-1.112702,9.765458,2.785345, 
435666,-1.497960,9.818102,2.651342, 
435745,-1.792288,9.349092,2.144046, 
435825,-1.062451,9.049978,1.883219, 
435904,-0.454653,9.509417,2.526911, 
435983,-0.258434,8.872903,2.184725, 
436062,-0.124431,9.418487,2.735094, 
436142,-0.502511,10.047821,1.988507, 
436221,-0.559941,8.925548,2.581948, 
436300,-1.098345,9.337128,2.498196, 
436379,-1.555390,9.327556,2.301978, 
436459,-1.476424,9.430450,1.988507, 
436539,-0.756159,9.432844,2.244548, 
436618,-0.007179,9.954497,3.570219, 
436698,-0.471403,9.076301,2.725522, 
436777,-0.174682,8.569004,1.560176, 
436856,-0.653264,9.301233,2.447945, 
436935,-0.332614,9.966462,3.015064, 
437015,-1.258670,8.439787,3.218461, 
437094,-0.753766,9.463951,1.648714, 
437173,-0.488153,10.026285,2.053115, 
437252,-1.292170,9.920997,2.069865, 
437332,-0.002393,9.729565,3.967442, 
437412,0.088538,9.301233,2.634592, 
437491,0.342186,8.243568,1.600855, 
437571,-0.521654,9.451987,2.517339, 
437650,-0.741802,9.755886,3.555861, 
437729,-1.332850,9.801352,3.237605, 
437808,-1.687000,9.205518,2.000471, 
437888,-1.761180,8.937511,1.129453, 
437967,-1.296956,9.995177,1.976542, 
438046,-0.490546,9.138516,3.110780, 
438125,-0.174682,10.203361,2.596305, 
438205,-1.064844,8.470895,1.342421, 
438285,-0.614977,8.954262,2.251727, 
438364,-1.299349,9.619491,2.924134, 
438444,-1.780324,9.480701,2.270870, 
438523,-1.660678,9.641026,1.474031, 
438602,-1.354386,9.408915,1.940648, 
438681,-1.265848,9.246197,2.172760, 
438761,-0.497725,9.308413,1.976542, 
438840,-0.402009,9.423272,1.818610, 
438919,-0.701122,9.260554,1.763573, 
438999,-0.981092,9.636241,2.333085, 
439079,-1.603248,8.985370,2.294799, 
439158,-1.825789,9.686492,1.873647, 
439237,-1.775538,8.913583,2.349836, 
439317,-0.863840,9.162445,2.077044, 
439396,-1.057665,9.126552,2.309156, 
439475,-0.684372,10.052607,1.880826, 
439554,-0.820767,9.413700,0.978699, 
439634,-0.531226,9.052371,1.445316, 
439713,-0.330221,9.882710,1.706143, 
439792,0.574298,9.851603,1.579319, 
439872,0.703515,10.069357,1.543426, 
439952,0.311078,8.980584,1.072023, 
440031,0.490546,9.289269,0.949984, 
440110,0.710694,9.901854,1.110309, 
440189,0.567119,9.406522,0.875804, 
440269,0.229719,9.449594,1.754002, 
440348,-0.105288,9.698457,1.825789, 
440427,-0.492939,10.016713,1.610427, 
440507,0.153146,9.344306,1.275420, 
440586,-0.023929,9.796566,1.177311, 
440666,0.095716,9.607526,1.213204, 
440745,0.196218,9.430450,1.098345, 
440825,0.301506,9.796566,1.141417, 
440904,0.332614,9.641026,1.019379, 
440983,0.291935,9.593168,1.239526, 
441062,0.239291,9.609919,1.100738, 
441142,0.244077,9.643419,1.222776, 
441221,0.227326,9.676920,1.213204, 
441300,0.167504,9.562060,1.227562, 
441380,0.064609,9.432844,1.220383, 
441459,0.265613,9.729565,1.249098, 
441539,0.277577,9.540524,1.275420, 
441618,0.177075,9.502238,1.301742, 
441698,0.229719,9.533346,1.308921, 
441777,0.248862,9.497452,1.416602, 
441856,0.117252,9.765458,1.646321, 
441935,0.500118,9.597955,1.665464, 
442015,0.279970,9.444808,1.763573, 
442094,0.174682,9.564454,1.543426, 
442173,0.332614,8.877689,1.505139, 
442253,0.124431,9.956890,1.780324, 
442333,0.342186,9.779816,2.060294, 
442412,0.600620,9.566847,1.758787, 
442491,-0.064609,8.915976,1.605641, 
442571,0.335007,9.399343,1.038522, 
442650,0.234505,9.722385,1.677429, 
442729,0.181861,9.373021,1.715715, 
442808,0.155539,9.648206,1.629570, 
442888,0.165111,9.504631,1.624785, 
442967,0.220148,9.535739,1.526675, 
443046,0.270399,9.609919,1.440531, 
443126,0.358936,9.636241,1.304135, 
443206,0.193826,9.480701,1.418995, 
443285,0.224933,9.518989,1.368743, 
443364,0.196218,9.569240,1.576926, 
443444,0.260827,9.590775,1.399851, 
443523,0.212969,9.562060,1.526675, 
443602,0.201004,9.535739,1.512318, 
443681,0.215362,9.574025,1.536247, 
443761,0.282363,9.533346,1.497960, 
443840,0.244077,9.559668,1.521890, 
443919,0.349365,9.571632,1.634356, 
443999,0.277577,9.521381,1.832968, 
444079,0.186647,9.602740,1.634356, 
444158,0.184254,9.518989,1.806646, 
444237,0.239291,9.770244,1.591284, 
444317,0.102895,9.542917,2.031579, 
444396,-0.050251,9.897068,1.273027, 
444475,0.461831,10.203361,1.505139, 
444554,0.052644,8.743686,1.521890, 
444634,0.526440,9.547704,1.603248, 
444713,0.452260,9.564454,2.105759, 
444792,0.490546,9.873138,1.687000, 
444872,-0.641299,8.930333,1.962185, 
444952,0.784874,8.662328,1.612820, 
445031,0.011965,8.939904,1.792288, 
445110,-1.701358,9.401736,0.571905, 
445190,-0.782481,10.052607,0.174682, 
445269,0.110074,10.856624,-2.294799, 
445348,-0.478582,12.639340,-4.699671, 
445428,-0.918877,13.902796,-4.589598, 
445507,0.102895,11.299312,-4.407737, 
445586,-2.412051,10.703478,-2.952849, 
445666,-1.560176,5.711872,-1.964578, 
445746,-2.742273,7.743451,-3.129924, 
445825,-1.136631,7.800880,-1.643928, 
445904,0.670014,7.887025,-2.340264, 
445983,1.490782,7.750629,0.301506, 
446063,1.349600,6.903540,-0.571905, 
446142,2.077044,9.904246,0.710694, 
446221,0.708301,8.647970,1.567355, 
446300,0.815982,9.389771,1.107916, 
446380,0.765731,9.009299,1.378315, 
446459,-1.947827,12.715914,2.012436, 
446539,-2.780559,10.090894,2.373765, 
446619,-2.364193,8.815474,-4.520204, 
446698,1.079202,9.207911,-1.194061, 
446777,-1.675036,10.370864,1.158167, 
446856,-0.954770,7.154795,0.658050, 
446936,-0.665228,10.301470,0.926055, 
447015,-2.251727,8.980584,2.062687, 
447094,3.094030,14.247375,-4.264162, 
447173,0.550369,6.133023,1.663071, 
447253,-0.323043,10.468973,-0.701122, 
447333,2.849954,10.275147,1.284992, 
447412,1.541033,7.942062,0.402009, 
447491,0.536011,10.868588,0.335007, 
447571,-1.739644,9.296448,0.102895, 
447650,0.440295,11.478780,-0.531226, 
447729,0.693943,8.755651,-0.885376, 
447809,-1.485996,10.526402,-0.449867, 
447888,-0.648478,7.322299,-0.212969, 
447967,-0.490546,10.660405,-0.679586, 
448046,-0.875804,9.095444,-1.232348, 
448126,0.248862,9.332341,-1.636749, 
448206,0.478582,11.194024,0.055037, 
448285,1.588891,9.004513,-0.064609, 
448364,1.789895,10.928411,0.552762, 
448444,1.641535,8.250747,0.835125, 
448523,2.452731,9.758279,0.624549, 
448602,1.560176,8.777187,1.308921, 
448681,1.301742,9.109801,0.981092, 
448761,0.497725,8.765223,0.782481, 
448840,-0.466617,10.076536,1.162953, 
448919,-2.153617,10.177038,1.584105, 
448999,-1.756395,10.064571,1.505139, 
449079,-1.679821,8.777187,1.832968, 
449158,-2.112938,9.763065,1.629570, 
449237,-1.938256,9.387379,1.765966, 
449317,-1.234741,9.897068,0.705908, 
449396,-1.170132,9.088264,2.096188, 
449475,0.313471,9.652991,1.897576, 
449554,0.404401,8.588147,1.533854, 
449634,0.686765,8.992549,1.452495, 
449713,0.519261,10.916447,2.359407, 
449792,0.693943,9.203125,2.424016, 
449872,1.122274,9.499846,1.837753, 
449952,0.799231,9.597955,2.254119, 
450031,0.949984,9.638634,1.909541, 
450110,0.990664,9.253376,1.744430, 
450190,0.612584,9.416093,2.050722, 
450269,0.026322,9.741529,2.428802, 
450348,0.181861,9.109801,2.337871, 
450427,-0.033501,9.265340,2.445552, 
450507,-0.100502,9.358664,2.534090, 
450586,-0.193826,9.174410,2.256512, 
450666,-0.308685,9.375414,2.514946, 
450746,-0.318257,9.473523,2.598698, 
450825,-0.007179,9.521381,2.340264, 
450904,-0.294328,9.301233,2.553233, 
450983,-0.256041,9.411307,2.500589, 
451063,-0.112467,9.396950,2.519732, 
451142,-0.169896,9.459166,2.287620, 
451221,-0.007179,9.320377,2.457517, 
451300,-0.028715,9.416093,2.474267, 
451380,-0.083752,9.317985,2.452731, 
451459,-0.033501,9.284483,2.548447, 
451539,-0.196218,9.353878,2.550840, 
451619,-0.425938,9.341913,2.651342, 
451698,-0.078966,9.265340,2.414444, 
451777,-0.090931,9.389771,2.242155, 
451856,-0.177075,9.526167,2.447945, 
451936,-0.052644,9.377807,2.359407, 
452015,-0.102895,9.490273,2.483839, 
452094,-0.203397,9.382592,2.380944, 
452173,-0.201004,9.432844,2.431195, 
452253,-0.205790,9.473523,2.380944, 
452333,-0.071787,9.416093,2.357014, 
452412,-0.007179,9.272519,2.258905, 
452492,-0.040679,9.368236,2.534090, 
452571,-0.150753,9.351485,2.498196, 
452650,-0.088538,9.272519,2.471874, 
452729,-0.227326,9.334735,2.555626, 
452809,-0.272792,9.313198,2.541268, 
452888,-0.323043,9.344306,2.443159, 
452967,-0.217755,9.298841,2.581948, 
453046,-0.203397,9.435237,2.596305, 
453126,-0.035894,9.384986,2.433588, 
453206,-0.052644,9.368236,2.426409, 
453285,0.052644,9.435237,2.574769, 
453365,-0.014357,9.396950,2.512553, 
453444,-0.067001,9.389771,2.431195, 
453523,-0.067001,9.361056,2.414444, 
453602,-0.026322,9.423272,2.558019, 
453682,-0.169896,9.456773,2.852346, 
453761,-0.179468,9.310805,2.692022, 
453840,-0.282363,9.286877,2.720737, 
453919,-0.325435,9.308413,2.773381, 
453999,-0.473796,9.253376,2.620234, 
454079,-0.449867,9.301233,2.591519, 
454158,-0.437902,9.358664,2.596305, 
454238,-0.366115,9.368236,2.385729, 
454317,-0.344579,9.384986,2.462302, 
454396,-0.346972,9.394557,2.364193, 
454475,-0.320650,9.320377,2.328300, 
454555,-0.189040,9.349092,2.727915, 
454634,-0.189040,9.260554,2.648949, 
454713,-0.222540,9.279697,2.495803, 
454792,-0.258434,9.222268,2.639378, 
454872,-0.198611,9.308413,2.280442, 
454952,-0.256041,9.466345,2.514946, 
455031,-0.294328,9.313198,2.615448, 
455111,-0.220148,9.368236,2.483839, 
455190,-0.346972,9.389771,2.625020, 
455269,-0.299114,9.440022,2.538876, 
455348,-0.184254,9.612311,2.534090, 
455428,-0.055037,9.286877,2.581948, 
455507,-0.131610,9.351485,2.651342, 
455586,-0.373294,9.344306,2.505375, 
455666,-0.153146,9.337128,2.663307, 
455746,-0.320650,9.466345,2.720737, 
455825,-0.370901,9.363449,2.371372, 
455904,-0.378079,9.294055,2.713558, 
455983,-0.313471,9.351485,2.675271, 
456063,-0.129217,9.327556,2.447945, 
456142,-0.332614,9.136123,2.246941, 
456221,-0.265613,9.231839,2.179939, 
456301,0.119645,9.136123,2.007650, 
456380,-0.356543,9.306020,2.026793, 
456459,-0.064609,9.722385,2.883454, 
456539,-0.543190,9.219875,2.742273, 
456619,-0.023929,9.286877,2.598698, 
456698,-0.198611,9.459166,2.452731, 
456777,-0.256041,9.425665,2.481446, 
456856,-0.167504,9.341913,2.739880, 
456936,-0.284756,9.332341,2.603484, 
457015,-0.212969,9.332341,2.464695, 
457094,-0.181861,9.279697,2.352229, 
457174,-0.165111,9.320377,2.632199, 
457253,-0.098109,9.332341,2.754237, 
457333,-0.217755,9.377807,2.919348, 
457412,-0.227326,9.437630,2.146439, 
457492,-0.145967,9.456773,2.333085, 
457571,-0.167504,9.466345,2.225405, 
457650,-0.181861,9.454380,2.105759, 
457729,-0.201004,9.382592,2.215833, 
457809,-0.174682,9.526167,2.237369, 
457888,-0.148360,9.361056,2.242155, 
457967,-0.134003,9.291662,1.964578, 
458047,-0.239291,9.578811,2.182332, 
458126,-0.145967,9.447201,2.261298, 
458206,-0.172289,9.399343,2.239762, 
458285,-0.155539,9.478309,2.175153, 
458365,-0.124431,9.463951,2.206261, 
458444,-0.126824,9.440022,2.134474, 
458523,-0.189040,9.428058,2.096188, 
458602,-0.201004,9.384986,1.868861, 
458682,-0.330221,9.291662,2.347443, 
458761,-0.220148,9.617098,2.014829, 
458840,-0.349365,9.291662,1.634356, 
458920,-0.260827,9.918604,2.089009, 
459000,0.220148,9.193553,2.156010, 
459079,-0.473796,9.815709,2.151224, 
459158,-0.067001,9.253376,2.751844, 
459238,0.093323,9.136123,2.589127, 
459317,-0.397223,9.346699,2.392908, 
459396,-0.057430,9.346699,2.438373, 
459475,-0.583870,9.420879,2.158403, 
459555,0.023929,9.416093,2.115331, 
459634,-0.224933,9.636241,2.380944, 
459713,-0.339793,9.365842,2.278049, 
459793,-0.126824,9.511809,2.096188, 
459873,-0.270399,9.602740,2.249334, 
459952,-0.201004,9.447201,2.122509, 
460031,-0.524047,9.248590,2.316335, 
460111,-0.124431,9.349092,2.438373, 
460190,0.272792,9.370628,2.230190, 
460269,-0.725051,9.600348,2.694415, 
460348,-0.342186,9.272519,2.419230, 
460428,-0.071787,9.212696,2.053115, 
460507,-0.208183,9.286877,2.507768, 
460586,-0.014357,9.554882,3.074887, 
460666,-0.495332,9.442415,2.100973, 
460746,-0.110074,9.451987,2.177546, 
460825,-0.059823,9.349092,2.584341, 
460904,-0.306292,9.219875,2.694415, 
460984,-0.275184,9.375414,2.433588, 
461063,-0.512082,9.279697,2.230190, 
461142,-0.373294,9.528560,2.199083, 
461221,0.081359,9.406522,2.215833, 
461301,0.102895,9.684099,2.483839, 
461380,0.210576,9.277305,2.242155, 
461459,0.071787,9.399343,1.990900, 
461539,-0.217755,9.310805,2.400087, 
461619,-0.471403,9.286877,2.270870, 
461698,-0.603013,9.358664,2.433588, 
461777,-0.081359,9.370628,1.945434, 
461857,-0.069394,9.523774,2.165582, 
461936,-0.071787,9.353878,2.457517, 
462015,-0.122038,9.825280,2.254119, 
462094,-0.078966,9.339520,2.112938, 
462174,0.189040,9.250982,2.309156, 
462253,-0.471403,9.150480,2.684843, 
462333,-0.509689,9.497452,2.292406, 
462412,-0.102895,9.664956,1.983721, 
462492,0.000000,9.698457,2.223012, 
462571,0.358936,9.444808,2.189511, 
462650,-0.055037,9.676920,1.921505, 
462729,-0.181861,9.392164,2.079437, 
462809,-0.387651,9.471130,2.031579, 
462888,-0.457045,9.499846,2.167975, 
462967,-0.342186,9.339520,2.148831, 
463047,-0.358936,9.449594,1.952613, 
463126,-0.138789,9.581204,2.220619, 
463206,-0.023929,9.475916,2.139260, 
463285,0.004786,9.483095,1.990900, 
463365,-0.055037,9.411307,1.947827, 
463444,0.098109,9.576418,1.770752, 
463523,0.165111,9.301233,1.787502, 
463603,-0.490546,9.803744,2.024400, 
463682,0.222540,9.296448,1.631963, 
463761,0.088538,9.636241,1.988507, 
463840,0.002393,9.562060,2.055508, 
463920,-0.483367,9.387379,2.127295, 
464000,-0.222540,9.499846,2.017221, 
464079,-0.232112,9.377807,1.947827, 
464158,-0.138789,9.382592,2.201475, 
464238,-0.074180,9.176803,2.227798, 
464317,0.469010,9.542917,1.971756, 
464396,-0.141182,9.298841,2.132081, 
464476,-0.495332,9.719993,2.263691, 
464555,0.258434,9.504631,2.098580, 
464634,0.208183,9.296448,2.029186, 
464713,-0.203397,9.186374,2.215833, 
464793,-0.009572,9.432844,2.230190, 
464873,-0.430723,9.274912,2.100973, 
464952,-0.057430,9.542917,2.421623, 
465032,-0.083752,9.451987,2.352229, 
465111,-0.234505,9.289269,2.237369, 
465190,0.052644,9.463951,2.354622, 
465269,-0.016750,9.440022,2.239762, 
465349,-0.059823,9.425665,2.234976, 
465428,0.007179,9.440022,2.184725, 
465507,-0.172289,9.392164,2.258905, 
465586,0.112467,9.516596,2.230190, 
465666,0.014357,9.373021,2.060294, 
465746,-0.004786,9.478309,2.184725, 
465825,0.045465,9.492666,2.306763, 
465904,-0.055037,9.442415,2.074651, 
465984,-0.110074,9.430450,2.191904, 
466063,-0.086145,9.387379,2.091402, 
466142,-0.354150,9.313198,2.019614, 
466222,-0.500118,9.353878,2.330693, 
466301,0.155539,9.576418,2.275656, 
466380,0.488153,9.387379,2.050722, 
466459,0.265613,9.341913,2.330693, 
466539,-0.193826,9.294055,2.380944, 
466619,-0.425938,9.260554,2.282834, 
466698,-0.622156,9.480701,2.479053, 
466777,-0.437902,9.382592,2.079437, 
466857,-0.370901,9.595561,2.201475, 
466936,-0.076573,9.588383,2.227798, 
467015,-0.086145,9.502238,2.062687, 
467095,0.052644,9.341913,2.089009, 
467174,-0.160325,9.437630,2.301978, 
467253,0.011965,9.222268,2.268477, 
467333,0.306292,9.217482,1.902362, 
467413,0.203397,9.085872,2.086616, 
467492,0.145967,9.837245,2.342657, 
467571,0.569512,9.124159,1.844932, 
467650,0.471403,9.432844,1.629570, 
467730,0.050251,9.607526,1.821003, 
467809,-0.622156,9.356271,1.296956, 
467888,-1.603248,9.392164,1.732466, 
467968,-1.330457,8.612076,-0.708301, 
468047,-1.167739,5.924840,0.136396, 
468126,-4.747530,11.375885,2.921741, 
468206,-1.873647,21.009733,3.625256, 
468286,-1.933470,12.490980,2.718343, 
468365,-1.392673,-1.273027,-1.304135, 
468444,1.110309,-1.947827,-1.720501, 
468524,0.961949,2.991135,-4.843246, 
468603,3.874118,21.115021,1.107916, 
468682,1.569748,21.021698,4.484310, 
468761,-4.498667,10.538367,0.239291, 
468841,-1.045701,-5.747765,-3.101209, 
468920,-1.531461,-1.201240,0.011965, 
469000,-2.402480,7.623805,-0.727444, 
469079,-7.733879,31.653389,4.613527, 
469159,2.483839,4.529775,-0.552762, 
469238,3.589362,0.382865,-1.794681, 
469317,1.902362,-3.113173,-1.720501, 
469396,2.835596,6.130630,-1.550604, 
469476,2.014829,26.034840,-1.770752, 
469555,-1.074416,4.111016,0.918877, 
469634,-6.848503,-10.686728,-0.174682, 
469714,0.416366,0.722658,-0.612584, 
469793,-0.756159,59.614521,-2.194297, 
469873,2.237369,15.142323,0.969128, 
469952,5.692729,-6.850896,-4.757101, 
470032,-0.784874,-2.093795,1.158167, 
470111,-3.929155,16.597210,-1.201240, 
470190,-2.361800,14.716385,6.841324, 
470269,-4.446023,-1.409423,1.799467, 
470349,0.729837,-5.532403,-1.663071, 
470428,-8.789151,52.222828,-16.659426, 
470507,0.191433,12.873845,3.484074, 
470587,-0.090931,6.379493,-1.868861, 
470666,-1.531461,5.331399,-1.794681, 
470746,5.769301,25.771620,-5.173467, 
470825,0.442688,9.588383,1.993292, 
470905,2.567590,5.501296,-1.277813, 
470984,1.744430,10.222504,-1.237134, 
471063,-1.079202,10.220111,0.926055, 
471142,-0.504904,10.514439,0.954770, 
471222,0.141182,9.279697,1.280206, 
471301,1.407030,9.078693,1.335243, 
471380,1.072023,10.174645,2.038758, 
471459,-0.114860,9.038013,1.368743, 
471539,0.617370,9.502238,2.069865, 
471619,-0.303899,9.133730,1.658285, 
471698,0.423545,9.612311,1.955006, 
471778,0.071787,9.093051,1.835361, 
471857,-0.746587,10.191396,2.337871, 
471936,-0.696336,9.581204,2.313942, 
472015,-0.784874,9.018870,2.251727, 
472095,-0.890162,9.530953,2.325907, 
472174,-0.519261,9.183981,2.313942, 
472253,-0.746587,9.186374,2.689629, 
472333,-0.662836,9.377807,2.871490, 
472413,-0.787267,9.124159,2.627413, 
472492,-0.629335,9.040407,2.569983, 
472571,-0.839911,9.313198,2.641771, 
472650,-0.361329,9.368236,2.481446, 
472730,-1.060058,9.430450,2.294799, 
472809,-1.564962,8.887260,2.634592, 
472888,-1.198847,9.138516,2.065080, 
472968,-1.117488,9.329948,2.330693, 
473047,-1.095952,9.507024,1.988507, 
473126,-1.139024,9.674527,1.952613, 
473206,-1.024165,9.502238,2.165582, 
473286,-1.095952,9.382592,1.873647, 
473365,-1.351993,9.454380,2.026793, 
473444,-0.873411,9.250982,1.962185, 
473523,-0.447474,9.590775,2.105759, 
473603,-0.047858,9.440022,1.789895, 
473682,0.222540,9.461558,2.022007, 
473761,0.126824,9.317985,1.859290, 
473841,0.490546,9.195946,1.811431, 
473920,0.658050,9.516596,1.737251, 
474000,0.938020,9.463951,1.885612, 
474079,0.861447,9.672134,2.103366, 
474159,1.081594,9.858782,1.842539, 
474238,0.918877,9.808530,1.775538, 
474317,1.430959,9.260554,2.096188, 
474396,1.139024,9.334735,2.036365, 
474476,0.873411,9.155267,2.065080, 
474555,0.622156,9.588383,2.282834, 
474634,0.205790,9.571632,2.060294, 
474714,-0.241684,9.337128,2.335478, 
474793,-0.112467,9.260554,2.144046, 
474873,-0.528833,8.746079,1.825789, 
474952,-0.938020,9.791780,2.445552, 
475032,-0.842304,10.397185,1.438138, 
475111,-2.065080,8.219639,3.010278, 
475190,-2.103366,9.389771,2.424016, 
475269,-1.866468,9.317985,2.196690, 
475349,-2.081830,9.085872,2.505375, 
475428,-2.234976,9.105016,2.048329, 
475507,-1.888005,9.368236,2.012436, 
475586,-1.832968,9.428058,2.357014, 
475666,-1.964578,9.358664,2.179939, 
475746,-1.407030,9.038013,1.739644, 
475825,-1.134238,9.222268,1.856897, 
475904,-0.442688,9.109801,1.581712, 
475984,-0.153146,9.337128,1.112702, 
476063,0.770516,9.392164,0.569512, 
476142,0.823160,9.825280,0.672407, 
476222,0.792053,10.291898,0.306292, 
476301,0.806410,9.468738,0.600620, 
476380,1.799467,10.133965,0.241684, 
476459,1.885612,9.217482,0.435509, 
476539,1.462067,9.731957,-0.279970, 
476619,1.392673,9.624276,0.086145, 
476698,1.612820,9.724778,0.308685, 
476777,0.959556,10.167466,0.459438, 
476857,0.629335,10.248825,0.399616, 
476936,-0.236898,9.114587,0.603013, 
477015,-0.713087,9.183981,0.646085, 
477094,-1.026558,9.150480,0.722658, 
477174,-1.375922,9.442415,1.072023, 
477253,-0.935627,9.844424,1.232348, 
477333,-1.100738,9.504631,1.311314, 
477413,-1.727680,9.210303,1.519497, 
477492,-1.296956,9.480701,1.409423, 
477571,-1.328064,9.090658,1.464460, 
477650,-0.940413,9.456773,1.363958, 
477730,-1.038522,9.715207,1.512318, 
477809,-1.275420,9.576418,1.471638, 
477888,-1.024165,9.581204,1.153382, 
477967,-0.722658,9.758279,1.088773, 
478047,-0.452260,9.626669,1.430959, 
478126,-0.078966,9.633848,1.194061, 
478206,0.057430,9.801352,1.684607, 
478286,0.153146,9.401736,1.667857, 
478365,0.368508,9.239018,1.619999, 
478444,0.378079,9.657777,2.390515, 
478523,0.215362,9.547704,1.648714, 
478603,0.107681,9.272519,2.100973, 
478682,0.172289,9.485488,2.345050, 
478761,0.205790,9.246197,2.648949, 
478840,0.282363,9.128944,2.555626, 
478920,0.102895,9.284483,2.723130, 
479000,0.124431,9.167231,2.945670, 
479079,-0.294328,9.315591,3.084459, 
479159,-0.277577,9.207911,2.890633, 
479238,0.327828,9.554882,2.857132, 
479317,0.057430,9.408915,2.565197, 
479396,-0.150753,9.294055,3.010278, 
479476,-0.279970,9.162445,3.043779, 
479555,-0.241684,9.246197,3.172996, 
479634,-0.291935,9.090658,3.113173, 
479713,-0.287149,9.236626,3.239998, 
479793,-0.014357,9.404129,3.115566, 
479873,0.102895,9.069121,3.194532, 
479952,0.110074,9.162445,3.251962, 
480031,-0.026322,9.097836,3.302213, 
480111,0.155539,9.004513,3.297427, 
480190,0.165111,9.006907,3.589362, 
480269,0.117252,9.045193,3.598934, 
480348,-0.026322,8.971012,3.620470, 
480428,-0.318257,9.116980,3.572612, 
480507,-0.141182,9.071514,3.409894, 
480586,-0.155539,9.081086,3.529539, 
480666,-0.224933,9.133730,3.515182, 
480746,-0.141182,9.073908,3.417073, 
480825,-0.086145,9.047585,3.438609, 
480904,0.011965,9.133730,3.457752, 
480984,0.095716,8.985370,3.223247, 
481063,0.011965,9.071514,3.565433, 
481142,0.011965,9.028442,3.450573, 
481221,0.016750,9.114587,3.455359, 
481301,0.045465,9.095444,3.596541, 
481380,-0.057430,9.083479,3.536718, 
481459,-0.028715,9.069121,3.431430, 
481539,-0.102895,9.016478,3.500824, 
481619,-0.086145,9.054764,3.371608, 
481698,0.019143,8.999727,3.244783, 
481777,-0.028715,9.014085,3.649185, 
481857,0.000000,9.004513,3.486467, 
481936,0.021536,9.021263,3.405108, 
482015,0.000000,9.004513,3.517575, 
482094,0.019143,9.066729,3.381179, 
482174,-0.157932,9.057158,3.503217, 
482253,-0.244077,9.023657,3.383572, 
482333,0.540797,9.143302,3.199318, 
482412,0.323043,9.205518,3.046172, 
482492,0.418759,9.408915,3.012671, 
482571,0.143574,9.308413,3.180175, 
482650,0.110074,9.466345,2.806881, 
482729,-0.126824,9.449594,2.608270, 
482809,0.210576,9.423272,2.450338, 
482888,-0.064609,9.631455,2.328300, 
482967,-0.351757,9.406522,2.124902, 
483046,-0.129217,9.547704,2.268477, 
483126,0.047858,9.473523,2.352229, 
483206,0.031108,9.315591,2.809274, 
483285,-0.071787,9.236626,3.022243, 
483364,-0.045465,9.016478,3.266320, 
483444,0.234505,9.016478,3.165817, 
483523,0.172289,9.102622,2.974385, 
483602,0.279970,9.164838,2.928920, 
483681,0.308685,9.205518,2.766202, 
483761,0.332614,9.317985,2.668092, 
483840,0.296721,9.337128,2.603484, 
483919,0.157932,9.401736,2.483839, 
483999,0.179468,9.329948,2.589127, 
484079,0.167504,9.435237,2.464695, 
484158,0.093323,9.346699,2.651342, 
484237,0.011965,9.322770,2.581948, 
484317,0.014357,9.279697,2.914562, 
484396,0.172289,9.284483,2.857132, 
484475,0.126824,9.248590,2.936098, 
484554,0.093323,9.198339,2.809274, 
484634,0.047858,9.179195,2.713558, 
484713,-0.234505,9.253376,2.569983, 
484792,-0.105288,9.306020,2.646556, 
484872,-0.100502,9.538132,2.333085, 
484952,-0.356543,9.504631,2.383337, 
485031,-0.344579,9.420879,2.251727, 
485110,-0.270399,9.313198,2.469481, 
485189,-0.236898,9.466345,2.711165, 
485269,-0.059823,9.435237,2.507768, 
485348,0.124431,9.308413,2.424016, 
485427,0.277577,9.382592,2.380944, 
485506,0.105288,9.373021,2.572376, 
485586,0.016750,9.344306,2.510161, 
485666,-0.172289,9.365842,2.574769, 
485745,-0.165111,9.408915,2.524518, 
485824,-0.150753,9.399343,2.610663, 
485904,-0.026322,9.332341,2.617841, 
485983,-0.007179,9.334735,2.658521, 
486062,-0.184254,9.258162,2.933705, 
486141,-0.201004,9.289269,2.658521, 
486221,-0.251255,9.294055,2.708772, 
486300,-0.358936,9.219875,2.711165, 
486379,-0.442688,9.277305,2.648949, 
486459,-0.449867,9.329948,2.718343, 
486539,-0.335007,9.315591,2.625020, 
486618,-0.277577,9.375414,2.634592, 
486697,-0.141182,9.346699,2.586734, 
486777,-0.126824,9.373021,2.596305, 
486856,-0.009572,9.234232,2.550840, 
486935,0.004786,9.315591,2.653735, 
487014,0.002393,9.279697,2.644163, 
487094,0.014357,9.313198,2.467088, 
487173,-0.028715,9.346699,2.672878, 
487252,-0.011965,9.296448,2.632199, 
487332,-0.050251,9.339520,2.605877, 
487412,-0.095716,9.301233,2.574769, 
487491,-0.112467,9.282090,2.598698, 
487570,-0.112467,9.313198,2.591519, 
487650,-0.131610,9.248590,2.529304, 
487729,-0.071787,9.490273,2.538876, 
487808,-0.074180,9.404129,2.424016, 
487887,-0.086145,9.320377,2.455124, 
487967,-0.047858,9.401736,2.567590, 
488046,-0.050251,9.339520,2.553233, 
488125,-0.090931,9.368236,2.543661, 
488205,-0.071787,9.365842,2.486232, 
488285,-0.078966,9.373021,2.641771, 
488364,-0.074180,9.329948,2.565197, 
488443,-0.052644,9.332341,2.151224, 
488523,-0.040679,9.349092,2.495803, 
488602,-0.076573,9.274912,2.641771, 
488681,-0.019143,9.332341,2.577162, 
488760,-0.093323,9.334735,2.682450, 
488840,-0.076573,9.284483,2.519732, 
488919,-0.131610,9.337128,2.560412, 
488999,-0.110074,9.308413,2.601091, 
489078,-0.165111,9.363449,2.596305, 
489158,-0.145967,9.370628,2.629806, 
489237,-0.069394,9.346699,2.361800, 
489316,-0.062216,9.490273,2.548447, 
489395,-0.047858,9.351485,2.555626, 
489475,-0.014357,9.322770,2.577162, 
489554,-0.086145,9.315591,2.660914, 
489633,-0.081359,9.286877,2.790131, 
489713,-0.129217,9.272519,2.749451, 
489792,-0.098109,9.279697,2.828417, 
489872,-0.098109,9.243804,2.660914, 
489951,-0.220148,9.363449,2.519732, 
490031,-0.423545,9.368236,3.082066, 
490110,0.210576,9.382592,2.340264, 
490189,0.402009,9.279697,2.641771, 
490268,0.356543,9.416093,2.325907, 
490348,-0.524047,9.258162,2.816453, 
490427,-0.476189,9.260554,2.761416, 
490506,-0.265613,9.093051,2.904990, 
490586,0.291935,9.399343,2.615448, 
490666,-0.217755,9.215089,2.668092, 
490745,0.268006,9.368236,2.751844, 
490824,0.430723,9.334735,2.471874, 
490904,0.196218,9.471130,2.313942, 
490983,-0.002393,9.444808,2.352229, 
491062,-0.095716,9.387379,2.486232, 
491141,-0.330221,9.495059,2.514946, 
