Timestamp,Count
31082,0
31090,0
31098,-1
31105,-2
31113,-3
31121,-6
31129,-6
31137,-11
31145,-11
31152,-13
31160,-17
31168,-13
31176,-21
31184,-23
31191,-7
31199,-21
31207,-64
31215,-33
31223,82
31230,154
31238,76
31246,-91
31254,-188
31262,-161
31270,-104
31277,-100
31285,-106
31293,-82
31301,-51
31309,-45
31316,-80
31324,-179
31332,-81
31340,649
31348,1641
31355,1694
31363,308
31371,-1415
31379,-1993
31387,-1264
31395,-319
31402,3
31410,-56
31418,-47
31426,-3
31434,7
31441,27
31449,46
31457,52
31465,55
31473,66
31480,79
31488,95
31496,108
31504,124
31512,135
31520,139
31527,128
31535,90
31543,27
31551,-39
31559,-97
31566,-142
31574,-176
31582,-206
31590,-232
31598,-249
31605,-258
31613,-258
31621,-256
31629,-247
31637,-219
31645,-177
31652,-134
31660,-109
31668,-97
31676,-91
31684,-82
31691,-72
31699,-67
31707,-64
31715,-61
31723,-62
31730,-64
31738,-73
31746,-80
31754,-86
31762,-89
31770,-87
31777,-88
31785,-88
31793,-82
31801,-70
31809,-66
31816,-71
31824,-72
31832,-71
31840,-67
31848,-69
31855,-71
31863,-67
31871,-58
31879,-55
31887,-54
31895,-58
31902,-60
31910,-62
31918,-58
31926,-56
31934,-57
31941,-64
31949,-63
31957,-54
31965,-42
31973,-46
31980,-58
31988,-61
31996,-39
32004,-6
32012,18
32020,11
32027,-30
32035,-94
32043,-134
32051,-136
32059,-115
32066,-92
32074,-84
32082,-80
32090,-51
32098,-30
32105,-50
32113,-128
32121,-195
32129,183
32137,1125
32145,1745
32152,1036
32160,-652
32168,-1838
32176,-1636
32184,-663
32191,-43
32199,-6
32207,-48
32215,7
32223,28
32230,25
32238,37
32246,50
32254,61
32262,59
32270,65
32277,82
32285,102
32293,110
32301,114
32309,117
32316,121
32324,102
32332,56
32340,-6
32348,-70
32355,-113
32363,-139
32371,-154
32379,-171
32387,-191
32395,-218
32402,-243
32410,-252
32418,-243
32426,-220
32434,-187
32441,-162
32449,-139
32457,-123
32465,-102
32473,-84
32480,-67
32488,-66
32496,-75
32504,-82
32512,-81
32520,-79
32527,-84
32535,-89
32543,-95
32551,-96
32559,-96
32566,-94
32574,-90
32582,-88
32590,-81
32598,-68
32605,-58
32613,-59
32621,-68
32629,-71
32637,-69
32645,-66
32652,-69
32660,-65
32668,-57
32676,-58
32684,-66
32691,-68
32699,-58
32707,-43
32715,-43
32723,-57
32730,-68
32738,-62
32746,-56
32754,-60
32762,-60
32770,-50
32777,-43
32785,-54
32793,-65
32801,-50
32809,-17
32816,6
32824,11
32832,3
32840,-28
32848,-85
32855,-130
32863,-138
32871,-116
32879,-85
32887,-70
32895,-54
32902,-25
32910,-25
32918,-58
32926,-156
32934,-158
32941,433
32949,1486
32957,1844
32965,686
32973,-1177
32980,-2097
32988,-1518
32996,-435
33004,60
33012,13
33020,-24
33027,19
33035,33
33043,36
33051,39
33059,41
33066,53
33074,64
33082,74
33090,82
33098,98
33105,118
33113,138
33121,144
33129,131
33137,104
33145,60
33152,-15
33160,-85
33168,-129
33176,-144
33184,-155
33191,-182
33199,-223
33207,-268
33215,-293
33223,-291
33230,-265
33238,-235
33246,-206
33254,-174
33262,-142
33270,-111
33277,-91
33285,-78
33293,-71
33301,-62
33309,-52
33316,-51
33324,-58
33332,-70
33340,-78
33348,-80
33355,-81
33363,-85
33371,-86
33379,-77
33387,-63
33395,-58
33402,-66
33410,-73
33418,-70
33426,-60
33434,-60
33441,-60
33449,-53
33457,-43
33465,-37
33473,-39
33480,-42
33488,-45
33496,-47
33504,-51
33512,-55
33520,-52
33527,-43
33535,-42
33543,-47
33551,-49
33559,-47
33566,-53
33574,-63
33582,-59
33590,-26
33598,14
33605,35
33613,18
33621,-33
33629,-97
33637,-137
33645,-141
33652,-110
33660,-78
33668,-73
33676,-75
33684,-57
33691,-42
33699,-59
33707,-135
33715,-165
33723,300
33730,1303
33738,1829
33746,929
33754,-857
33762,-1957
33770,-1605
33777,-577
33785,-9
33793,-20
33801,-68
33809,-13
33816,8
33824,18
33832,36
33840,43
33848,51
33855,68
33863,81
33871,91
33879,98
33887,103
33895,117
33902,127
33910,126
33918,104
33926,61
33934,-3
33941,-71
33949,-123
33957,-150
33965,-170
33973,-188
33980,-208
33988,-224
33996,-247
34004,-261
34012,-255
34020,-216
34027,-168
34035,-137
34043,-121
34051,-106
34059,-91
34066,-83
34074,-76
34082,-72
34090,-75
34098,-75
34105,-71
34113,-63
34121,-61
34129,-69
34137,-80
34145,-83
34152,-87
34160,-86
34168,-82
34176,-71
34184,-69
34191,-70
34199,-72
34207,-67
34215,-58
34223,-55
34230,-60
34238,-54
34246,-49
34254,-54
34262,-64
34270,-70
34277,-58
34285,-44
34293,-42
34301,-51
34309,-57
34316,-47
34324,-40
34332,-53
34340,-77
34348,-83
34355,-40
34363,16
34371,49
34379,28
34387,-27
34395,-85
34402,-122
34410,-122
34418,-93
34426,-67
34434,-62
34441,-59
34449,-37
34457,-33
34465,-66
34473,-161
34480,-103
34488,534
34496,1432
34504,1490
34512,231
34520,-1344
34527,-1854
34535,-1127
34543,-209
34551,95
34559,12
34566,3
34574,37
34582,36
34590,37
34598,45
34605,51
34613,64
34621,71
34629,79
34637,92
34645,102
34652,107
34660,111
34668,115
34676,117
34684,94
34691,40
34699,-26
34707,-76
34715,-111
34723,-135
34730,-159
34738,-184
34746,-208
34754,-239
34762,-276
34770,-298
34777,-281
34785,-228
34793,-170
34801,-141
34809,-134
34816,-129
34824,-103
34832,-77
34840,-71
34848,-80
34855,-86
34863,-83
34871,-80
34879,-75
34887,-75
34895,-75
34902,-81
34910,-84
34918,-85
34926,-84
34934,-78
34941,-64
34949,-57
34957,-62
34965,-79
34973,-82
34980,-69
34988,-55
34996,-54
35004,-54
35012,-50
35020,-44
35027,-45
35035,-43
35043,-43
35051,-50
35059,-70
35066,-84
35074,-66
35082,-19
35090,21
35098,42
35105,16
35113,-46
35121,-95
35129,-114
35137,-92
35145,-59
35152,-55
35160,-60
35168,-41
35176,-42
35184,-56
35191,-111
35199,-77
35207,508
35215,1494
35223,1731
35230,504
35238,-1300
35246,-2092
35254,-1433
35262,-365
35270,82
35277,20
35285,4
35293,49
35301,41
35309,27
35316,21
35324,22
35332,35
35340,46
35348,59
35355,76
35363,93
35371,110
35379,121
35387,122
35395,109
35402,85
35410,40
35418,-26
35426,-91
35434,-140
35441,-168
35449,-189
35457,-218
35465,-252
35473,-280
35480,-294
35488,-293
35496,-272
35504,-242
35512,-204
35520,-161
35527,-125
35535,-94
35543,-73
35551,-59
35559,-49
35566,-43
35574,-35
35582,-25
35590,-25
35598,-40
35605,-58
35613,-69
35621,-69
35629,-65
35637,-62
35645,-60
35652,-69
35660,-81
35668,-94
35676,-90
35684,-77
35691,-68
35699,-68
35707,-77
35715,-74
35723,-62
35730,-58
35738,-69
35746,-80
35754,-66
35762,-21
35770,23
35777,17
35785,-40
35793,-101
35801,-120
35809,-102
35816,-78
35824,-72
35832,-60
35840,-24
35848,-24
35855,-47
35863,-95
35871,-56
35879,494
35887,1415
35895,1628
35902,428
35910,-1344
35918,-2107
35926,-1404
35934,-293
35941,164
35949,69
35957,15
35965,47
35973,43
35980,38
35988,55
35996,65
36004,56
36012,44
36020,67
36027,113
36035,144
36043,150
36051,145
36059,137
36066,136
36074,121
36082,70
36090,-7
36098,-78
36105,-125
36113,-144
36121,-172
36129,-218
36137,-270
36145,-306
36152,-323
36160,-319
36168,-293
36176,-249
36184,-197
36191,-158
36199,-126
36207,-99
36215,-74
36223,-60
36230,-57
36238,-66
36246,-72
36254,-64
36262,-55
36270,-53
36277,-60
36285,-73
36293,-86
36301,-99
36309,-93
36316,-70
36324,-51
36332,-58
36340,-77
36348,-84
36355,-68
36363,-52
36371,-47
36379,-48
36387,-59
36395,-75
36402,-86
36410,-75
36418,-41
36426,-5
36434,-2
36441,-33
36449,-76
36457,-108
36465,-113
36473,-93
36480,-78
36488,-72
36496,-48
36504,-31
36512,-35
36520,-89
36527,-140
36535,272
36543,1301
36551,1956
36559,1107
36566,-849
36574,-2201
36582,-1919
36590,-717
36598,76
36605,151
36613,78
36621,96
36629,89
36637,69
36645,60
36652,45
36660,48
36668,58
36676,70
36684,77
36691,98
36699,132
36707,168
36715,189
36723,185
36730,149
36738,85
36746,4
36754,-78
36762,-120
36770,-118
36777,-123
36785,-161
36793,-224
36801,-282
36809,-308
36816,-292
36824,-249
36832,-199
36840,-166
36848,-159
36855,-157
36863,-129
36871,-95
36879,-65
36887,-60
36895,-81
36902,-93
36910,-76
36918,-63
36926,-67
36934,-69
36941,-67
36949,-69
36957,-83
36965,-94
36973,-90
36980,-75
36988,-78
36996,-84
37004,-75
37012,-63
37020,-62
37027,-55
37035,-47
37043,-53
37051,-74
37059,-86
37066,-62
37074,-11
37082,-3
37090,-40
37098,-77
37105,-76
37113,-66
37121,-72
37129,-85
37137,-81
37145,-46
37152,-11
37160,-35
37168,-77
37176,-123
37184,-174
37191,180
37199,1221
37207,2095
37215,1504
37223,-485
37230,-2177
37238,-2203
37246,-1026
37254,-77
37262,84
37270,-12
37277,0
37285,30
37293,57
37301,91
37309,88
37316,61
37324,46
37332,54
37340,75
37348,102
37355,131
37363,163
37371,181
37379,178
37387,161
37395,126
37402,56
37410,-36
37418,-125
37426,-180
37434,-222
37441,-258
37449,-289
37457,-314
37465,-357
37473,-404
37480,-406
37488,-347
37496,-265
37504,-201
37512,-158
37520,-116
37527,-92
37535,-78
37543,-60
37551,-38
37559,-25
37566,-31
37574,-62
37582,-74
37590,-56
37598,-26
37605,-20
37613,-53
37621,-97
37629,-108
37637,-84
37645,-65
37652,-55
37660,-44
37668,-36
37676,-31
37684,-20
37691,-12
37699,-21
37707,-59
37715,-100
37723,-112
37730,-88
37738,-58
37746,-63
37754,-78
37762,-52
37770,-26
37777,-39
37785,-156
37793,-223
37801,337
37809,1486
37816,2030
37824,973
37832,-1009
37840,-2177
37848,-1774
37855,-665
37863,-30
37871,35
37879,46
37887,83
37895,69
37902,55
37910,51
37918,54
37926,57
37934,65
37941,80
37949,106
37957,133
37965,156
37973,178
37980,184
37988,166
37996,114
38004,39
38012,-50
38020,-128
38027,-181
38035,-208
38043,-236
38051,-275
38059,-312
38066,-323
38074,-309
38082,-281
38090,-247
38098,-217
38105,-180
38113,-141
38121,-101
38129,-79
38137,-76
38145,-76
38152,-69
38160,-54
38168,-49
38176,-58
38184,-72
38191,-82
38199,-83
38207,-86
38215,-90
38223,-92
38230,-82
38238,-72
38246,-73
38254,-79
38262,-79
38270,-71
38277,-65
38285,-66
38293,-65
38301,-55
38309,-44
38316,-40
38324,-49
38332,-59
38340,-65
38348,-62
38355,-51
38363,-48
38371,-52
38379,-67
38387,-73
38395,-70
38402,-67
38410,-68
38418,-66
38426,-45
38434,-11
38441,6
38449,-16
38457,-72
38465,-105
38473,-101
38480,-75
38488,-58
38496,-63
38504,-53
38512,-28
38520,-39
38527,-103
38535,-222
38543,9
38551,1037
38559,2193
38566,2004
38574,112
38582,-1950
38590,-2467
38598,-1467
38605,-355
38613,-11
38621,-68
38629,-36
38637,22
38645,36
38652,47
38660,45
38668,48
38676,63
38684,80
38691,101
38699,119
38707,138
38715,171
38723,204
38730,219
38738,196
38746,141
38754,58
38762,-31
38770,-102
38777,-145
38785,-169
38793,-185
38801,-217
38809,-261
38816,-297
38824,-312
38832,-311
38840,-287
38848,-248
38855,-204
38863,-165
38871,-129
38879,-101
38887,-78
38895,-67
38902,-60
38910,-64
38918,-75
38926,-85
38934,-83
38941,-71
38949,-64
38957,-69
38965,-83
38973,-90
38980,-90
38988,-83
38996,-78
39004,-79
39012,-86
39020,-80
39027,-72
39035,-69
39043,-81
39051,-96
39059,-94
39066,-61
39074,-15
39082,19
39090,13
39098,-29
39105,-74
39113,-87
39121,-75
39129,-63
39137,-61
39145,-70
39152,-46
39160,-4
39168,-17
39176,-105
39184,-218
39191,85
39199,1161
39207,2199
39215,1796
39223,-154
39230,-2027
39238,-2316
39246,-1260
39254,-241
39262,22
39270,-31
39277,-3
39285,26
39293,22
39301,30
39309,39
39316,56
39324,71
39332,83
39340,95
39348,119
39355,152
39363,179
39371,192
39379,193
39387,174
39395,129
39402,49
39410,-41
39418,-114
39426,-167
39434,-206
39441,-239
39449,-270
39457,-292
39465,-296
39473,-287
39480,-259
39488,-227
39496,-185
39504,-143
39512,-104
39520,-83
39527,-71
39535,-63
39543,-51
39551,-44
39559,-45
39566,-53
39574,-61
39582,-70
39590,-73
39598,-76
39605,-74
39613,-66
39621,-66
39629,-72
39637,-74
39645,-69
39652,-65
39660,-72
39668,-77
39676,-75
39684,-67
39691,-58
39699,-56
39707,-47
39715,-50
39723,-65
39730,-80
39738,-76
39746,-47
39754,-13
39762,7
39770,8
39777,-11
39785,-49
39793,-85
39801,-100
39809,-94
39816,-74
39824,-66
39832,-52
39840,-28
39848,-30
39855,-74
39863,-162
39871,-91
39879,628
39887,1744
39895,1998
39902,629
39910,-1377
39918,-2298
39926,-1657
39934,-525
39941,3
39949,-11
39957,-29
39965,6
39973,4
39980,16
39988,36
39996,51
40004,64
40012,76
40020,76
40027,84
40035,108
40043,143
40051,164
40059,170
40066,155
40074,122
40082,61
40090,-14
40098,-82
40105,-126
40113,-153
40121,-179
40129,-206
40137,-241
40145,-268
40152,-281
40160,-276
40168,-249
40176,-211
40184,-173
40191,-150
40199,-139
40207,-114
40215,-80
40223,-61
40230,-64
40238,-77
40246,-78
40254,-72
40262,-76
40270,-89
40277,-94
40285,-91
40293,-89
40301,-88
40309,-91
40316,-88
40324,-87
40332,-87
40340,-84
40348,-70
40355,-52
40363,-45
40371,-57
40379,-75
40387,-76
40395,-70
40402,-68
40410,-69
40418,-61
40426,-32
40434,0
40441,9
40449,-19
40457,-66
40465,-96
40473,-103
40480,-91
40488,-76
40496,-74
40504,-51
40512,-15
40520,-24
40527,-86
40535,-201
40543,-42
40551,872
40559,2047
40566,2058
40574,361
40582,-1728
40590,-2441
40598,-1570
40605,-420
40613,8
40621,-40
40629,-35
40637,12
40645,18
40652,33
40660,38
40668,48
40676,64
40684,83
40691,94
40699,100
40707,111
40715,141
40723,177
40730,194
40738,177
40746,119
40754,36
40762,-54
40770,-128
40777,-176
40785,-200
40793,-216
40801,-241
40809,-268
40816,-280
40824,-274
40832,-257
40840,-237
40848,-208
40855,-172
40863,-128
40871,-90
40879,-68
40887,-62
40895,-65
40902,-71
40910,-71
40918,-73
40926,-71
40934,-72
40941,-74
40949,-82
40957,-85
40965,-85
40973,-83
40980,-83
40988,-80
40996,-81
41004,-79
41012,-77
41020,-75
41027,-66
41035,-60
41043,-56
41051,-60
41059,-71
41066,-78
41074,-74
41082,-55
41090,-22
41098,10
41105,10
41113,-25
41121,-74
41129,-106
41137,-107
41145,-85
41152,-71
41160,-73
41168,-59
41176,-40
41184,-54
41191,-98
41199,-164
41207,84
41215,1017
41223,1979
41230,1666
41238,-109
41246,-1891
41254,-2198
41262,-1194
41270,-212
41277,24
41285,-72
41293,-54
41301,-7
41309,-2
41316,15
41324,25
41332,37
41340,54
41348,65
41355,82
41363,95
41371,117
41379,137
41387,150
41395,145
41402,124
41410,83
41418,24
41426,-43
41434,-104
41441,-146
41449,-176
41457,-200
41465,-227
41473,-255
41480,-267
41488,-268
41496,-252
41504,-219
41512,-174
41520,-141
41527,-120
41535,-100
41543,-86
41551,-75
41559,-75
41566,-78
41574,-81
41582,-78
41590,-73
41598,-70
41605,-68
41613,-72
41621,-79
41629,-86
41637,-90
41645,-83
41652,-73
41660,-70
41668,-67
41676,-67
41684,-67
41691,-61
41699,-58
41707,-60
41715,-62
41723,-64
41730,-61
41738,-53
41746,-53
41754,-65
41762,-83
41770,-82
41777,-51
41785,-6
41793,21
41801,6
41809,-46
41816,-92
41824,-108
41832,-96
41840,-72
41848,-61
41855,-62
41863,-43
41871,-30
41879,-45
41887,-105
41895,-140
41902,317
41910,1366
41918,1978
41926,1077
41934,-851
41941,-2117
41949,-1810
41957,-691
41965,-16
41973,1
41980,-56
41988,4
41996,26
42004,23
42012,26
42020,36
42027,57
42035,81
42043,93
42051,102
42059,112
42066,131
42074,145
42082,150
42090,137
42098,103
42105,55
42113,-11
42121,-76
42129,-126
42137,-153
42145,-163
42152,-172
42160,-191
42168,-219
42176,-245
42184,-252
42191,-232
42199,-200
42207,-171
42215,-145
42223,-120
42230,-98
42238,-77
42246,-68
42254,-72
42262,-77
42270,-79
42277,-78
42285,-74
42293,-72
42301,-71
42309,-74
42316,-77
42324,-75
42332,-75
42340,-74
42348,-78
42355,-74
42363,-65
42371,-61
42379,-64
42387,-68
42395,-71
42402,-69
42410,-62
42418,-56
42426,-62
42434,-80
42441,-95
42449,-81
42457,-51
42465,-16
42473,4
42480,-12
42488,-54
42496,-95
42504,-113
42512,-108
42520,-88
42527,-72
42535,-65
42543,-34
42551,-27
42559,-56
42566,-133
42574,-192
42582,209
42590,1231
42598,1936
42605,1204
42613,-638
42621,-1988
42629,-1827
42637,-770
42645,-57
42652,1
42660,-61
42668,-11
42676,6
42684,3
42691,21
42699,33
42707,46
42715,54
42723,71
42730,89
42738,107
42746,121
42754,136
42762,140
42770,128
42777,92
42785,42
42793,-27
42801,-88
42809,-129
42816,-146
42824,-155
42832,-172
42840,-197
42848,-229
42855,-252
42863,-255
42871,-228
42879,-188
42887,-154
42895,-131
42902,-122
42910,-116
42918,-109
42926,-100
42934,-90
42941,-88
42949,-85
42957,-78
42965,-75
42973,-82
42980,-90
42988,-88
42996,-80
43004,-89
43012,-102
43020,-96
43027,-76
43035,-70
43043,-89
43051,-100
43059,-96
43066,-76
43074,-70
43082,-76
43090,-94
43098,-91
43105,-58
43113,-15
43121,12
43129,12
43137,-13
43145,-46
43152,-78
43160,-99
43168,-97
43176,-71
43184,-57
43191,-40
43199,-27
43207,-42
43215,-66
43223,-133
43230,-48
43238,648
43246,1637
43254,1706
43262,291
43270,-1523
43277,-2142
43285,-1321
43293,-242
43301,133
43309,41
43316,18
43324,55
43332,48
43340,43
43348,34
43355,36
43363,61
43371,85
43379,106
43387,111
43395,107
43402,116
43410,129
43418,131
43426,119
43434,82
43441,22
43449,-50
43457,-116
43465,-159
43473,-172
43480,-170
43488,-186
43496,-228
43504,-285
43512,-310
43520,-287
43527,-238
43535,-195
43543,-162
43551,-137
43559,-123
43566,-104
43574,-88
43582,-82
43590,-81
43598,-74
43605,-73
43613,-76
43621,-84
43629,-79
43637,-70
43645,-67
43652,-79
43660,-91
43668,-82
43676,-72
43684,-67
43691,-78
43699,-88
43707,-98
43715,-99
43723,-92
43730,-67
43738,-34
43746,-15
43754,-43
43762,-94
43770,-136
43777,-140
43785,-115
43793,-95
43801,-92
43809,-71
43816,-29
43824,-33
43832,-64
43840,-132
43848,-15
43855,693
43863,1618
43871,1589
43879,130
43887,-1625
43895,-2147
43902,-1267
43910,-185
43918,168
43926,54
43934,24
43941,55
43949,44
43957,32
43965,29
43973,33
43980,48
43988,62
43996,76
44004,95
44012,110
44020,119
44027,126
44035,123
44043,102
44051,54
44059,-16
44066,-86
44074,-127
44082,-144
44090,-155
44098,-176
44105,-210
44113,-240
44121,-254
44129,-253
44137,-235
44145,-201
44152,-164
44160,-139
44168,-125
44176,-105
44184,-90
44191,-71
44199,-64
44207,-66
44215,-74
44223,-83
44230,-80
44238,-76
44246,-79
44254,-83
44262,-75
44270,-63
44277,-59
44285,-73
44293,-81
44301,-76
44309,-51
44316,-17
44324,3
44332,-12
44340,-60
44348,-105
44355,-114
44363,-93
44371,-76
44379,-73
44387,-71
44395,-36
44402,-24
44410,-47
44418,-108
44426,-121
44434,325
44441,1266
44449,1724
44457,788
44465,-993
44473,-2039
44480,-1596
44488,-477
44496,139
44504,111
44512,24
44520,46
44527,49
44535,47
44543,56
44551,57
44559,57
44566,63
44574,75
44582,89
44590,100
44598,117
44605,129
44613,128
44621,110
44629,65
44637,8
44645,-47
44652,-85
44660,-97
44668,-99
44676,-123
44684,-177
44691,-237
44699,-274
44707,-269
44715,-242
44723,-216
44730,-187
44738,-152
44746,-120
44754,-95
44762,-88
44770,-81
44777,-78
44785,-71
44793,-71
44801,-71
44809,-74
44816,-80
44824,-82
44832,-68
44840,-54
44848,-57
44855,-72
44863,-80
44871,-63
44879,-21
44887,7
44895,-3
44902,-43
44910,-89
44918,-116
44926,-113
44934,-84
44941,-63
44949,-59
44957,-40
44965,-28
44973,-39
44980,-86
44988,-150
44996,199
45004,1176
45012,1882
45020,1166
45027,-712
45035,-2120
45043,-1933
45051,-754
45059,82
45066,168
45074,73
45082,87
45090,88
45098,63
45105,49
45113,46
45121,60
45129,71
45137,79
45145,86
45152,97
45160,104
45168,109
45176,111
45184,98
45191,61
45199,5
45207,-61
45215,-107
45223,-134
45230,-148
45238,-172
45246,-214
45254,-264
45262,-295
45270,-302
45277,-286
45285,-250
45293,-208
45301,-165
45309,-125
45316,-103
45324,-90
45332,-83
45340,-71
45348,-66
45355,-63
45363,-67
45371,-71
45379,-77
45387,-82
45395,-77
45402,-76
45410,-87
45418,-97
45426,-91
45434,-60
45441,-27
45449,-11
45457,-33
45465,-83
45473,-118
45480,-125
45488,-103
45496,-81
45504,-81
45512,-58
45520,-28
45527,-38
45535,-92
45543,-169
45551,73
45559,949
45566,1771
45574,1360
45582,-317
45590,-1823
45598,-1897
45605,-880
45613,-29
45621,96
45629,-13
45637,7
45645,38
45652,34
45660,42
45668,46
45676,55
45684,70
45691,82
45699,85
45707,93
45715,105
45723,119
45730,124
45738,116
45746,78
45754,18
45762,-43
45770,-88
45777,-107
45785,-115
45793,-131
45801,-158
45809,-198
45816,-243
45824,-262
45832,-247
45840,-204
45848,-155
45855,-119
45863,-105
45871,-96
45879,-78
45887,-65
45895,-61
45902,-69
45910,-70
45918,-64
45926,-65
45934,-74
45941,-80
45949,-79
45957,-84
45965,-102
45973,-104
45980,-86
45988,-41
45996,-2
46004,-2
46012,-46
46020,-92
46027,-112
46035,-112
46043,-91
46051,-79
46059,-77
46066,-54
46074,-31
46082,-49
46090,-113
46098,-215
46105,13
46113,860
46121,1644
46129,1229
46137,-366
46145,-1752
46152,-1770
46160,-769
46168,31
46176,133
46184,20
46191,33
46199,59
46207,60
46215,53
46223,46
46230,47
46238,68
46246,84
46254,91
46262,92
46270,97
46277,107
46285,113
46293,104
46301,72
46309,19
46316,-48
46324,-102
46332,-114
46340,-100
46348,-105
46355,-142
46363,-199
46371,-248
46379,-264
46387,-258
46395,-228
46402,-189
46410,-155
46418,-127
46426,-106
46434,-89
46441,-82
46449,-81
46457,-74
46465,-73
46473,-78
46480,-85
46488,-81
46496,-69
46504,-63
46512,-71
46520,-86
46527,-92
46535,-89
46543,-74
46551,-52
46559,-15
46566,4
46574,-8
46582,-54
46590,-103
46598,-127
46605,-115
46613,-95
46621,-83
46629,-63
46637,-24
46645,-15
46652,-43
46660,-127
46668,-68
46676,603
46684,1599
46691,1699
46699,287
46707,-1552
46715,-2188
46723,-1335
46730,-195
46738,198
46746,73
46754,27
46762,73
46770,76
46777,59
46785,40
46793,38
46801,54
46809,64
46816,66
46824,71
46832,89
46840,108
46848,113
46855,99
46863,67
46871,18
46879,-47
46887,-107
46895,-134
46902,-132
46910,-130
46918,-157
46926,-206
46934,-268
46941,-302
46949,-296
46957,-267
46965,-227
46973,-191
46980,-150
46988,-108
46996,-86
47004,-83
47012,-85
47020,-76
47027,-66
47035,-67
47043,-74
47051,-81
47059,-85
47066,-79
47074,-77
47082,-72
47090,-74
47098,-87
47105,-93
47113,-77
47121,-42
47129,-11
47137,-7
47145,-42
47152,-91
47160,-122
47168,-120
47176,-88
47184,-66
47191,-57
47199,-31
47207,-34
47215,-66
47223,-126
47230,-111
47238,405
47246,1384
47254,1767
47262,694
47270,-1141
47277,-2099
47285,-1528
47293,-378
47301,162
47309,78
47316,7
47324,50
47332,42
47340,19
47348,38
47355,76
47363,96
47371,84
47379,66
47387,74
47395,89
47402,101
47410,111
47418,113
47426,95
47434,48
47441,-12
47449,-68
47457,-109
47465,-126
47473,-132
47480,-142
47488,-173
47496,-217
47504,-252
47512,-252
47520,-229
47527,-192
47535,-159
47543,-122
47551,-92
47559,-70
47566,-65
47574,-61
47582,-64
47590,-68
47598,-70
47605,-66
47613,-63
47621,-67
47629,-74
47637,-81
47645,-82
47652,-75
47660,-75
47668,-68
47676,-59
47684,-55
47691,-70
47699,-86
47707,-70
47715,-21
47723,26
47730,25
47738,-28
47746,-95
47754,-133
47762,-134
47770,-111
47777,-86
47785,-85
47793,-80
47801,-40
47809,-28
47816,-46
47824,-90
47832,-55
47840,485
47848,1390
47855,1613
47863,440
47871,-1305
47879,-2073
47887,-1394
47895,-283
47902,190
47910,94
47918,22
47926,56
47934,47
47941,44
47949,53
47957,57
47965,57
47973,56
47980,63
47988,74
47996,81
48004,82
48012,91
48020,93
48027,76
48035,44
48043,1
48051,-39
48059,-66
48066,-78
48074,-89
48082,-115
48090,-157
48098,-208
48105,-243
48113,-255
48121,-243
48129,-215
48137,-180
48145,-147
48152,-120
48160,-100
48168,-82
48176,-68
48184,-60
48191,-66
48199,-73
48207,-78
48215,-82
48223,-85
48230,-80
48238,-68
48246,-59
48254,-63
48262,-73
48270,-78
48277,-73
48285,-70
48293,-72
48301,-71
48309,-66
48316,-64
48324,-55
48332,-41
48340,-43
48348,-63
48355,-68
48363,-38
48371,12
48379,38
48387,20
48395,-37
48402,-97
48410,-138
48418,-145
48426,-115
48434,-93
48441,-90
48449,-74
48457,-38
48465,-44
48473,-55
48480,-78
48488,30
48496,661
48504,1560
48512,1601
48520,216
48527,-1578
48535,-2204
48543,-1362
48551,-219
48559,201
48566,98
48574,50
48582,69
48590,47
48598,35
48605,50
48613,64
48621,67
48629,54
48637,53
48645,61
48652,67
48660,79
48668,89
48676,94
48684,81
48691,45
48699,-7
48707,-59
48715,-85
48723,-89
48730,-88
48738,-120
48746,-189
48754,-263
48762,-314
48770,-330
48777,-315
48785,-279
48793,-241
48801,-206
48809,-175
48816,-139
48824,-112
48832,-91
48840,-80
48848,-76
48855,-73
48863,-72
48871,-68
48879,-60
48887,-60
48895,-66
48902,-75
48910,-80
48918,-76
48926,-72
48934,-69
48941,-70
48949,-73
48957,-81
48965,-82
48973,-70
48980,-53
48988,-54
48996,-85
49004,-103
49012,-79
49020,-24
49027,17
49035,16
49043,-30
49051,-108
49059,-167
49066,-175
49074,-145
49082,-102
49090,-90
49098,-81
49105,-42
49113,-26
49121,-49
49129,-80
49137,-84
49145,287
49152,1152
49160,1685
49168,916
49176,-804
49184,-1975
49191,-1682
49199,-573
49207,128
49215,134
49223,25
49230,41
49238,44
49246,28
49254,29
49262,34
49270,45
49277,59
49285,68
49293,70
49301,66
49309,72
49316,91
49324,112
49332,109
49340,90
49348,41
49355,-15
49363,-63
49371,-86
49379,-91
49387,-96
49395,-124
49402,-169
49410,-221
49418,-258
49426,-265
49434,-243
49441,-206
49449,-166
49457,-133
49465,-107
49473,-84
49480,-65
49488,-59
49496,-66
49504,-76
49512,-73
49520,-64
49527,-57
49535,-62
49543,-73
49551,-86
49559,-96
49566,-97
49574,-87
49582,-68
49590,-63
49598,-69
49605,-80
49613,-70
49621,-61
49629,-62
49637,-75
49645,-70
49652,-36
49660,11
49668,33
49676,5
49684,-59
49691,-112
49699,-121
49707,-88
49715,-53
49723,-35
49730,-23
49738,-42
49746,-52
49754,-77
49762,-62
49770,427
49777,1410
49785,1849
49793,791
49801,-1161
49809,-2308
49816,-1818
49824,-570
49832,154
49840,182
49848,108
49855,132
49863,138
49871,124
49879,101
49887,85
49895,83
49902,85
49910,90
49918,102
49926,110
49934,113
49941,118
49949,125
49957,122
49965,95
49973,44
49980,-6
49988,-44
49996,-60
50004,-66
50012,-105
50020,-189
50027,-276
50035,-321
50043,-325
50051,-307
50059,-300
50066,-273
50074,-221
50082,-166
50090,-125
50098,-94
50105,-70
50113,-57
50121,-63
50129,-74
50137,-74
50145,-65
50152,-63
50160,-71
50168,-78
50176,-84
50184,-90
50191,-82
50199,-68
50207,-62
50215,-80
50223,-102
50230,-108
50238,-91
50246,-58
50254,-23
50262,-14
50270,-46
50277,-103
50285,-144
50293,-145
50301,-111
50309,-97
50316,-85
50324,-61
50332,-43
50340,-56
50348,-125
50355,-190
50363,221
50371,1271
50379,1986
50387,1213
50395,-716
50402,-2145
50410,-1977
50418,-838
50426,-35
50434,72
50441,18
50449,36
50457,35
50465,22
50473,26
50480,24
50488,26
50496,18
50504,8
50512,11
50520,30
50527,60
50535,95
50543,118
50551,129
50559,116
50566,75
50574,22
50582,-26
50590,-60
50598,-81
50605,-96
50613,-134
50621,-191
50629,-247
50637,-285
50645,-296
50652,-281
50660,-247
50668,-204
50676,-163
50684,-129
50691,-116
50699,-108
50707,-103
50715,-95
50723,-90
50730,-90
50738,-91
50746,-91
50754,-88
50762,-82
50770,-78
50777,-74
50785,-76
50793,-80
50801,-80
50809,-77
50816,-69
50824,-57
50832,-36
50840,-4
50848,9
50855,-9
50863,-51
50871,-95
50879,-114
50887,-95
50895,-73
50902,-58
50910,-34
50918,-32
50926,-51
50934,-103
50941,-126
50949,324
50957,1326
50965,1861
50973,932
50980,-954
50988,-2153
50996,-1778
51004,-614
51012,86
51020,117
51027,50
51035,74
51043,70
51051,61
51059,56
51066,50
51074,58
51082,71
51090,83
51098,95
51105,104
51113,120
51121,138
51129,152
51137,161
51145,139
51152,88
51160,20
51168,-43
51176,-85
51184,-115
51191,-135
51199,-160
51207,-192
51215,-226
51223,-256
51230,-271
51238,-269
51246,-236
51254,-185
51262,-131
51270,-102
51277,-93
51285,-86
51293,-66
51301,-42
51309,-30
51316,-34
51324,-51
51332,-65
51340,-66
51348,-63
51355,-72
51363,-79
51371,-72
51379,-55
51387,-55
51395,-76
51402,-95
51410,-76
51418,-24
51426,11
51434,-7
51441,-66
51449,-114
51457,-114
51465,-74
51473,-54
51480,-47
51488,-16
51496,-11
51504,-39
51512,-101
51520,-124
51527,378
51535,1496
51543,2139
51551,1169
51559,-940
51566,-2388
51574,-2090
51582,-821
51590,14
51598,96
51605,32
51613,64
51621,67
51629,54
51637,41
51645,35
51652,43
51660,57
51668,74
51676,96
51684,111
51691,130
51699,152
51707,172
51715,171
51723,134
51730,68
51738,-8
51746,-78
51754,-138
51762,-188
51770,-222
51777,-247
51785,-269
51793,-301
51801,-329
51809,-339
51816,-326
51824,-282
51832,-234
51840,-185
51848,-130
51855,-85
51863,-63
51871,-59
51879,-61
51887,-55
51895,-47
51902,-48
51910,-63
51918,-73
51926,-82
51934,-93
51941,-108
51949,-103
51957,-85
51965,-77
51973,-92
51980,-113
51988,-120
51996,-93
52004,-42
52012,-6
52020,-18
52027,-67
52035,-118
52043,-130
52051,-102
52059,-73
52066,-50
52074,-19
52082,-26
52090,-64
52098,-119
52105,-111
52113,401
52121,1489
52129,2081
52137,1084
52145,-977
52152,-2316
52160,-1962
52168,-728
52176,21
52184,49
52191,-20
52199,33
52207,50
52215,43
52223,49
52230,50
52238,40
52246,32
52254,47
52262,87
52270,127
52277,152
52285,174
52293,190
52301,181
52309,128
52316,55
52324,-12
52332,-65
52340,-118
52348,-171
52355,-219
52363,-258
52371,-285
52379,-300
52387,-296
52395,-276
52402,-235
52410,-185
52418,-144
52426,-115
52434,-88
52441,-59
52449,-34
52457,-22
52465,-14
52473,-12
52480,-17
52488,-29
52496,-27
52504,-26
52512,-36
52520,-50
52527,-56
52535,-64
52543,-62
52551,-62
52559,-75
52566,-101
52574,-116
52582,-105
52590,-63
52598,-20
52605,-18
52613,-52
52621,-90
52629,-103
52637,-91
52645,-71
52652,-68
52660,-73
52668,-45
52676,-31
52684,-49
52691,-103
52699,-113
52707,394
52715,1486
52723,2091
52730,1111
52738,-928
52746,-2263
52754,-1931
52762,-731
52770,6
52777,36
52785,-36
52793,10
52801,37
52809,-3
52816,-70
52824,-80
52832,8
52840,130
52848,187
52855,139
52863,44
52871,-5
52879,46
52887,139
52895,218
52902,224
52910,128
52918,-20
52926,-144
52934,-186
52941,-148
52949,-130
52957,-192
52965,-274
52973,-308
52980,-302
52988,-280
52996,-249
53004,-211
53012,-181
53020,-151
53027,-122
53035,-106
53043,-83
53051,-60
53059,-75
53066,-131
53074,-165
53082,-121
53090,-38
53098,8
53105,-16
53113,-77
53121,-108
53129,-102
53137,-67
53145,-38
53152,-76
53160,-158
53168,-192
53176,-141
53184,-65
53191,-31
53199,-54
53207,-75
53215,-61
53223,-19
53230,25
53238,63
53246,38
53254,-44
53262,-106
53270,-89
53277,-27
53285,-7
53293,-62
53301,-98
53309,-67
53316,-30
53324,-57
53332,-185
53340,-24
53348,896
53355,1960
53363,1784
53371,51
53379,-1817
53387,-2250
53395,-1289
53402,-231
53410,117
53418,89
53426,77
53434,56
53441,26
53449,13
53457,3
53465,10
53473,40
53480,77
53488,99
53496,103
53504,102
53512,119
53520,143
53527,145
53535,107
53543,47
53551,11
53559,2
53566,-29
53574,-102
53582,-165
53590,-172
53598,-170
53605,-230
53613,-295
53621,-292
53629,-245
53637,-214
53645,-206
53652,-179
53660,-131
53668,-110
53676,-117
53684,-91
53691,-31
53699,-4
53707,-28
53715,-46
53723,-33
53730,-27
53738,-46
53746,-69
53754,-73
53762,-66
53770,-87
53777,-128
53785,-131
53793,-99
53801,-85
53809,-94
53816,-109
53824,-101
53832,-86
53840,-87
53848,-102
53855,-97
53863,-109
53871,-168
53879,-193
53887,-104
53895,26
53902,74
53910,-10
53918,-150
53926,-222
53934,-238
53941,5
53949,958
53957,2123
53965,2057
53973,264
53980,-1856
53988,-2510
53996,-1549
54004,-348
54012,90
54020,45
54027,48
54035,46
54043,-1
54051,13
54059,58
54066,72
54074,38
54082,20
54090,61
54098,128
54105,147
54113,101
54121,53
54129,70
54137,127
54145,139
54152,65
54160,-30
54168,-103
54176,-165
54184,-236
54191,-269
54199,-230
54207,-191
54215,-229
54223,-291
54230,-300
54238,-258
54246,-212
54254,-183
54262,-141
54270,-86
54277,-39
54285,-21
54293,-23
54301,-34
54309,-58
54316,-94
54324,-96
54332,-73
54340,-52
54348,-62
54355,-88
54363,-99
54371,-96
54379,-87
54387,-81
54395,-74
54402,-67
54410,-58
54418,-44
54426,-7
54434,31
54441,36
54449,-11
54457,-79
54465,-113
54473,-89
54480,-39
54488,-26
54496,-43
54504,-38
54512,-22
54520,-41
54527,-179
54535,-258
54543,390
54551,1757
54559,2459
54566,1268
54574,-1058
54582,-2483
54590,-2060
54598,-791
54605,-55
54613,5
54621,-13
54629,32
54637,19
54645,6
54652,23
54660,37
54668,48
54676,53
54684,69
54691,93
54699,119
54707,144
54715,169
54723,188
54730,191
54738,161
54746,99
54754,5
54762,-85
54770,-149
54777,-177
54785,-193
54793,-224
54801,-266
54809,-308
54816,-328
54824,-319
54832,-276
54840,-214
54848,-161
54855,-120
54863,-88
54871,-68
54879,-74
54887,-84
54895,-82
54902,-62
54910,-49
54918,-57
54926,-72
54934,-75
54941,-85
54949,-103
54957,-126
54965,-139
54973,-136
54980,-125
54988,-117
54996,-111
55004,-105
55012,-95
55020,-90
55027,-80
55035,-64
55043,-41
55051,-18
55059,-12
55066,-22
55074,-46
55082,-76
55090,-77
55098,-52
55105,-34
55113,-47
55121,-83
55129,-80
55137,-47
55145,-29
55152,-62
55160,-143
55168,25
55176,916
55184,2076
55191,2087
55199,370
55207,-1758
55215,-2501
55223,-1639
55230,-470
55238,-24
55246,-58
55254,-34
55262,46
55270,69
55277,43
55285,11
55293,26
55301,88
55309,129
55316,124
55324,116
55332,147
55340,190
55348,219
55355,230
55363,230
55371,179
55379,95
55387,30
55395,-15
55402,-68
55410,-149
55418,-220
55426,-250
55434,-257
55441,-275
55449,-314
55457,-334
55465,-313
55473,-249
55480,-169
55488,-122
55496,-112
55504,-120
55512,-116
55520,-84
55527,-43
55535,-14
55543,-3
55551,-10
55559,-39
55566,-73
55574,-92
55582,-81
55590,-36
55598,-8
55605,-36
55613,-97
55621,-138
55629,-132
55637,-96
55645,-48
55652,-8
55660,-11
55668,-47
55676,-98
55684,-126
55691,-126
55699,-84
55707,-40
55715,-36
55723,-39
55730,-28
55738,-33
55746,-99
55754,-227
55762,56
55770,1190
55777,2326
55785,1906
55793,-198
55801,-2215
55809,-2517
55816,-1379
55824,-280
55832,28
55840,10
55848,77
55855,97
55863,37
55871,2
55879,11
55887,63
55895,112
55902,90
55910,35
55918,38
55926,97
55934,161
55941,211
55949,227
55957,209
55965,160
55973,77
55980,-45
55988,-181
55996,-277
56004,-282
56012,-214
56020,-179
56027,-237
56035,-325
56043,-333
56051,-272
56059,-205
56066,-193
56074,-173
56082,-108
56090,-58
56098,-63
56105,-63
56113,-19
56121,29
56129,26
56137,-25
56145,-74
56152,-88
56160,-86
56168,-61
56176,-40
56184,-65
56191,-136
56199,-187
56207,-208
56215,-197
56223,-134
56230,-63
56238,-53
56246,-87
56254,-127
56262,-97
56270,-24
56277,26
56285,23
56293,-31
56301,-122
56309,-198
56316,-148
56324,-2
56332,44
56340,-84
56348,-178
56355,-40
56363,133
56371,60
56379,-194
56387,-344
56395,184
56402,1516
56410,2487
56418,1751
56426,-473
56434,-2321
56441,-2366
56449,-1162
56457,-225
56465,-64
56473,-110
56480,-40
56488,12
56496,15
56504,-7
56512,-8
56520,35
56527,93
56535,102
56543,26
56551,-20
56559,45
56566,119
56574,137
56582,150
56590,174
56598,145
56605,64
56613,-4
56621,-21
56629,-77
56637,-249
56645,-391
56652,-339
56660,-193
56668,-130
56676,-207
56684,-289
56691,-281
56699,-225
56707,-187
56715,-152
56723,-107
56730,-83
56738,-64
56746,10
56754,80
56762,41
56770,-97
56777,-212
56785,-158
56793,-39
56801,3
56809,-18
56816,-23
56824,-37
56832,-82
56840,-106
56848,-77
56855,-55
56863,-45
56871,-27
56879,15
56887,13
56895,-57
56902,-104
56910,-92
56918,-76
56926,-98
56934,-64
56941,23
56949,46
56957,-31
56965,-199
56973,-253
56980,382
56988,1627
56996,2238
57004,1157
57012,-941
57020,-2248
57027,-1893
57035,-751
57043,-76
57051,-46
57059,-93
57066,-38
57074,29
57082,102
57090,120
57098,88
57105,55
57113,57
57121,74
57129,78
57137,98
57145,143
57152,176
57160,193
57168,181
57176,153
57184,106
57191,19
57199,-94
57207,-177
57215,-214
57223,-235
57230,-245
57238,-254
57246,-296
57254,-321
57262,-293
57270,-231
57277,-192
57285,-179
57293,-156
57301,-112
57309,-85
57316,-84
57324,-82
57332,-58
57340,-39
57348,-29
57355,-26
57363,-40
57371,-75
57379,-113
57387,-125
57395,-104
57402,-59
57410,-31
57418,-46
57426,-80
57434,-97
57441,-80
57449,-66
57457,-75
57465,-76
57473,-45
57480,-12
57488,-7
57496,-9
57504,-10
57512,-34
57520,-79
57527,-110
57535,-93
57543,-70
57551,-65
57559,-40
57566,-9
57574,-30
57582,-126
57590,-260
57598,41
57605,1205
57613,2396
57621,2052
57629,-32
57637,-2125
57645,-2515
57652,-1401
57660,-298
57668,-10
57676,-55
57684,-2
57691,26
57699,0
57707,-10
57715,-4
57723,19
57730,50
57738,74
57746,78
57754,62
57762,48
57770,73
57777,120
57785,145
57793,132
57801,95
57809,39
57816,-29
57824,-80
57832,-120
57840,-170
57848,-206
57855,-184
57863,-161
57871,-225
57879,-353
57887,-394
57895,-290
57902,-170
57910,-157
57918,-173
57926,-132
57934,-97
57941,-110
57949,-116
57957,-64
57965,-39
57973,-106
57980,-165
57988,-148
57996,-101
58004,-77
58012,-49
58020,-8
58027,-16
58035,-77
58043,-110
58051,-63
58059,6
58066,-5
58074,-87
58082,-144
58090,-110
58098,-3
58105,80
58113,41
58121,-73
58129,-141
58137,-125
58145,-81
58152,-50
58160,-54
58168,-68
58176,-60
58184,-84
58191,-110
58199,-144
58207,-122
58215,464
58223,1736
58230,2510
58238,1445
58246,-985
58254,-2690
58262,-2376
58270,-913
58277,60
58285,133
58293,-17
58301,-12
58309,44
58316,83
58324,80
58332,58
58340,73
58348,151
58355,218
58363,174
58371,98
58379,131
58387,218
58395,276
58402,258
58410,198
58418,139
58426,54
58434,-57
58441,-133
58449,-154
58457,-152
58465,-205
58473,-278
58480,-334
58488,-354
58496,-354
58504,-350
58512,-331
58520,-271
58527,-185
58535,-117
58543,-102
58551,-119
58559,-121
58566,-90
58574,-50
58582,-28
58590,-45
58598,-74
58605,-90
58613,-84
58621,-71
58629,-67
58637,-66
58645,-74
58652,-103
58660,-119
58668,-91
58676,-34
58684,-6
58691,-33
58699,-89
58707,-113
58715,-83
58723,-47
58730,-50
58738,-80
58746,-65
58754,-23
58762,-19
58770,-86
58777,-224
58785,31
58793,1154
58801,2360
58809,2083
58816,40
58824,-2089
58832,-2565
58840,-1498
58848,-358
58855,-5
58863,-26
58871,8
58879,19
58887,10
58895,28
58902,42
58910,43
58918,56
58926,85
58934,113
58941,126
58949,142
58957,171
58965,200
58973,209
58980,180
58988,114
58996,16
59004,-89
59012,-164
59020,-197
59027,-221
59035,-246
59043,-271
59051,-298
59059,-317
59066,-306
59074,-276
59082,-236
59090,-202
59098,-167
59105,-132
59113,-95
59121,-71
59129,-57
59137,-48
59145,-40
59152,-38
59160,-41
59168,-49
59176,-51
59184,-56
59191,-65
59199,-75
59207,-80
59215,-70
59223,-53
59230,-41
59238,-49
59246,-71
59254,-93
59262,-98
59270,-86
59277,-84
59285,-81
59293,-47
59301,4
59309,8
59316,-59
59324,-135
59332,-164
59340,-140
59348,-120
59355,-127
59363,-112
59371,-77
59379,-86
59387,-138
59395,-207
59402,96
59410,1180
59418,2329
59426,2062
59434,103
59441,-1958
59449,-2428
59457,-1398
59465,-308
59473,-11
59480,-84
59488,-39
59496,32
59504,53
59512,69
59520,76
59527,80
59535,81
59543,77
59551,85
59559,109
59566,145
59574,165
59582,172
59590,171
59598,162
59605,125
59613,52
59621,-35
59629,-105
59637,-147
59645,-177
59652,-216
59660,-255
59668,-281
59676,-294
59684,-294
59691,-273
59699,-231
59707,-187
59715,-159
59723,-141
59730,-124
59738,-99
59746,-73
59754,-55
59762,-51
59770,-60
59777,-68
59785,-68
59793,-61
59801,-62
59809,-66
59816,-59
59824,-53
59832,-64
59840,-88
59848,-108
59855,-100
59863,-66
59871,-24
59879,4
59887,-16
59895,-70
59902,-113
59910,-115
59918,-87
59926,-58
59934,-59
59941,-50
59949,-17
59957,-10
59965,-58
59973,-193
59980,-108
59988,761
59996,2031
60004,2208
60012,548
60020,-1688
60027,-2587
60035,-1766
60043,-521
60051,-6
60059,-32
60066,-17
60074,46
60082,55
60090,60
60098,72
60105,82
60113,87
60121,82
60129,91
60137,127
60145,166
60152,185
60160,188
60168,189
60176,170
60184,109
60191,13
60199,-91
60207,-159
60215,-193
60223,-207
60230,-223
60238,-248
60246,-273
60254,-294
60262,-289
60270,-268
60277,-236
60285,-193
60293,-146
60301,-102
60309,-73
60316,-67
60324,-71
60332,-77
60340,-76
60348,-73
60355,-67
60363,-63
60371,-62
60379,-70
60387,-77
60395,-90
60402,-90
60410,-76
60418,-54
60426,-38
60434,-30
60441,-22
60449,-11
60457,-6
60465,-4
60473,-7
60480,-26
60488,-61
60496,-89
60504,-83
60512,-55
60520,-36
60527,-64
60535,-77
60543,-61
60551,-62
60559,-121
60566,-232
60574,61
60582,1179
60590,2296
60598,1907
60605,-124
60613,-2094
60621,-2391
60629,-1280
60637,-244
60645,-12
60652,-68
60660,-2
60668,33
60676,4
60684,2
60691,34
60699,65
60707,57
60715,16
60723,15
60730,77
60738,157
60746,189
60754,155
60762,102
60770,70
60777,41
60785,-9
60793,-71
60801,-118
60809,-146
60816,-166
60824,-192
60832,-218
60840,-255
60848,-270
60855,-239
60863,-174
60871,-138
60879,-121
60887,-109
60895,-111
60902,-105
60910,-85
60918,-79
60926,-82
60934,-85
60941,-82
60949,-81
60957,-89
60965,-95
60973,-78
60980,-41
60988,-30
60996,-44
61004,-58
61012,-91
61020,-109
61027,-73
61035,-4
61043,41
61051,33
61059,-11
61066,-49
61074,-55
61082,-54
61090,-61
61098,-35
61105,-21
61113,-63
61121,-87
61129,-62
61137,-31
61145,-104
61152,-255
61160,110
61168,1348
61176,2367
61184,1665
61191,-518
61199,-2247
61207,-2201
61215,-1044
61223,-205
61230,-77
61238,-65
61246,51
61254,46
61262,-21
61270,-21
61277,29
61285,85
61293,116
61301,129
61309,106
61316,94
61324,125
61332,177
61340,202
61348,175
61355,122
61363,24
61371,-86
61379,-113
61387,-75
61395,-56
61402,-121
61410,-211
61418,-249
61426,-245
61434,-244
61441,-252
61449,-249
61457,-245
61465,-216
61473,-141
61480,-85
61488,-89
61496,-117
61504,-113
61512,-86
61520,-70
61527,-64
61535,-63
61543,-82
61551,-94
61559,-70
61566,-74
61574,-129
61582,-138
61590,-65
61598,14
61605,23
61613,-35
61621,-77
61629,-81
61637,-128
61645,-173
61652,-138
61660,-62
61668,-39
61676,-28
61684,-15
61691,-36
61699,-149
61707,-292
61715,42
61723,1188
61730,2215
61738,1738
61746,-251
61754,-2082
61762,-2299
61770,-1210
61777,-206
61785,43
61793,-22
61801,8
61809,64
61816,88
61824,81
61832,55
61840,31
61848,39
61855,78
61863,112
61871,128
61879,137
61887,151
61895,167
61902,162
61910,118
61918,54
61926,-33
61934,-119
61941,-176
61949,-180
61957,-175
61965,-209
61973,-269
61980,-301
61988,-290
61996,-255
62004,-243
62012,-239
62020,-220
62027,-172
62035,-123
62043,-102
62051,-104
62059,-106
62066,-107
62074,-103
62082,-101
62090,-117
62098,-143
62105,-160
62113,-149
62121,-115
62129,-111
62137,-139
62145,-156
62152,-122
62160,-47
62168,2
62176,-27
62184,-108
62191,-161
62199,-163
62207,-138
62215,-100
62223,-71
62230,-67
62238,-70
62246,-88
62254,-110
62262,-201
62270,-219
62277,452
62285,1743
62293,2304
62301,1056
62309,-1151
62316,-2389
62324,-1901
62332,-735
62340,-151
62348,-170
62355,-190
62363,-115
62371,-87
62379,-81
62387,-84
62395,-82
62402,-60
62410,-32
62418,-13
62426,9
62434,41
62441,67
62449,80
62457,98
62465,98
62473,69
62480,21
62488,-33
62496,-62
62504,-71
62512,-76
62520,-86
62527,-107
62535,-141
62543,-171
62551,-179
62559,-164
62566,-146
62574,-122
62582,-102
62590,-79
62598,-66
62605,-55
62613,-62
62621,-76
62629,-87
62637,-84
62645,-69
62652,-51
62660,-53
62668,-73
62676,-93
62684,-93
62691,-69
62699,-37
62707,-16
62715,-22
62723,-46
62730,-76
62738,-81
62746,-62
62754,-41
62762,-42
62770,-49
62777,-23
62785,0
62793,-3
62801,-76
62809,-131
62816,363
62824,1526
62832,2246
62840,1319
62848,-801
62855,-2275
62863,-2020
62871,-798
62879,-4
62887,67
62895,11
62902,53
62910,68
62918,68
62926,80
62934,96
62941,102
62949,98
62957,102
62965,127
62973,163
62980,189
62988,189
62996,179
63004,163
63012,126
63020,60
63027,-28
63035,-107
63043,-140
63051,-144
63059,-156
63066,-208
63074,-259
63082,-285
63090,-269
63098,-237
63105,-204
63113,-174
63121,-149
63129,-131
63137,-112
63145,-94
63152,-67
63160,-58
63168,-55
63176,-61
63184,-70
63191,-73
63199,-75
63207,-82
63215,-88
63223,-77
63230,-45
63238,-22
63246,-30
63254,-72
63262,-112
63270,-132
63277,-123
63285,-111
63293,-103
63301,-70
63309,-38
63316,-44
63324,-91
63332,-175
63340,10
63348,913
63355,2020
63363,1938
63371,202
63379,-1820
63387,-2418
63395,-1465
63402,-303
63410,88
63418,11
63426,8
63434,55
63441,65
63449,69
63457,64
63465,62
63473,70
63480,78
63488,92
63496,111
63504,142
63512,156
63520,159
63527,142
63535,103
63543,35
63551,-48
63559,-125
63566,-169
63574,-189
63582,-191
63590,-204
63598,-219
63605,-237
63613,-237
63621,-226
63629,-199
63637,-171
63645,-141
63652,-115
63660,-93
63668,-75
63676,-73
63684,-94
63691,-116
63699,-110
63707,-79
63715,-64
63723,-72
63730,-101
63738,-116
63746,-96
63754,-39
63762,24
63770,37
63777,-18
63785,-94
63793,-130
63801,-102
63809,-39
63816,4
63824,-2
63832,-22
63840,-56
63848,-85
63855,-104
63863,-123
63871,222
63879,1194
63887,1995
63895,1435
63902,-415
63910,-2001
63918,-2067
63926,-1008
63934,-135
63941,22
63949,-51
63957,-18
63965,29
63973,59
63980,71
63988,54
63996,40
64004,60
64012,106
64020,145
64027,141
64035,117
64043,116
64051,137
64059,139
64066,102
64074,37
64082,-29
64090,-83
64098,-113
64105,-119
64113,-128
64121,-144
64129,-160
64137,-172
64145,-186
64152,-205
64160,-214
64168,-193
64176,-148
64184,-113
64191,-91
64199,-95
64207,-119
64215,-132
64223,-118
64230,-92
64238,-78
64246,-84
64254,-87
64262,-80
64270,-57
64277,-9
64285,27
64293,-7
64301,-103
64309,-186
64316,-186
64324,-117
64332,-66
64340,-58
64348,-41
64355,-27
64363,-45
64371,-128
64379,-210
64387,179
64395,1253
64402,2029
64410,1305
64418,-642
64426,-2120
64434,-1995
64441,-872
64449,-74
64457,19
64465,-51
64473,-13
64480,16
64488,34
64496,56
64504,53
64512,47
64520,51
64527,66
64535,90
64543,109
64551,119
64559,118
64566,108
64574,87
64582,44
64590,-24
64598,-92
64605,-135
64613,-148
64621,-140
64629,-139
64637,-163
64645,-193
64652,-212
64660,-202
64668,-189
64676,-185
64684,-176
64691,-154
64699,-115
64707,-77
64715,-63
64723,-70
64730,-85
64738,-99
64746,-102
64754,-97
64762,-93
64770,-91
64777,-75
64785,-45
64793,-20
64801,-31
64809,-73
64816,-122
64824,-136
64832,-111
64840,-73
64848,-69
64855,-66
64863,-53
64871,-58
64879,-89
64887,-165
64895,38
64902,913
64910,1831
64918,1543
64926,-141
64934,-1816
64941,-2072
64949,-1082
64957,-135
64965,74
64973,-33
64980,-24
64988,10
64996,14
65004,20
65012,31
65020,50
65027,69
65035,68
65043,62
65051,74
65059,109
65066,142
65074,146
65082,111
65090,62
65098,15
65105,-24
65113,-68
65121,-107
65129,-133
65137,-140
65145,-139
65152,-153
65160,-184
65168,-210
65176,-208
65184,-181
65191,-150
65199,-119
65207,-96
65215,-86
65223,-82
65230,-83
65238,-81
65246,-86
65254,-98
65262,-103
65270,-82
65277,-44
65285,-13
65293,-12
65301,-48
65309,-100
65316,-134
65324,-126
65332,-81
65340,-51
65348,-46
65355,-26
65363,-28
65371,-50
65379,-119
65387,-180
65395,270
65402,1382
65410,2095
65418,1248
65426,-748
65434,-2136
65441,-1882
65449,-720
65457,13
65465,50
65473,-21
65480,8
65488,5
65496,7
65504,26
65512,36
65520,43
65527,49
65535,63
65543,90
65551,118
65559,143
65566,165
65574,162
65582,129
65590,69
65598,-1
65605,-65
65613,-105
65621,-123
65629,-129
65637,-148
65645,-186
65652,-229
65660,-256
65668,-262
65676,-249
65684,-221
65691,-191
65699,-161
65707,-132
65715,-106
65723,-81
65730,-71
65738,-83
65746,-98
65754,-95
65762,-68
65770,-28
65777,-5
65785,-5
65793,-37
65801,-90
65809,-137
65816,-140
65824,-100
65832,-72
65840,-79
65848,-62
65855,-38
65863,-53
65871,-152
65879,-272
65887,96
65895,1219
65902,2120
65910,1481
65918,-500
65926,-2097
65934,-2057
65941,-918
65949,-56
65957,60
65965,-15
65973,21
65980,39
65988,29
65996,34
66004,42
66012,68
66020,82
66027,87
66035,98
66043,117
66051,137
66059,138
66066,130
66074,112
66082,71
66090,-1
66098,-76
66105,-127
66113,-143
66121,-149
66129,-167
66137,-200
66145,-244
66152,-271
66160,-283
66168,-265
66176,-239
66184,-202
66191,-159
66199,-121
66207,-94
66215,-85
66223,-87
66230,-79
66238,-82
66246,-97
66254,-103
66262,-79
66270,-34
66277,-6
66285,-26
66293,-81
66301,-124
66309,-139
66316,-128
66324,-104
66332,-90
66340,-70
66348,-42
66355,-43
66363,-89
66371,-195
66379,-127
66387,635
66395,1834
66402,2116
66410,686
66418,-1404
66426,-2354
66434,-1671
66441,-500
66449,22
66457,-2
66465,-4
66473,42
66480,31
66488,25
66496,36
66504,47
66512,61
66520,78
66527,91
66535,112
66543,133
66551,154
66559,167
66566,155
66574,111
66582,40
66590,-33
66598,-98
66605,-137
66613,-154
66621,-169
66629,-198
66637,-242
66645,-276
66652,-284
66660,-270
66668,-246
66676,-210
66684,-171
66691,-147
66699,-130
66707,-114
66715,-95
66723,-75
66730,-67
66738,-70
66746,-83
66754,-97
66762,-101
66770,-83
66777,-51
66785,-17
66793,-10
66801,-42
66809,-96
66816,-132
66824,-131
66832,-108
66840,-105
66848,-104
66855,-58
66863,-27
66871,-49
66879,-135
66887,-183
66895,304
66902,1456
66910,2199
66918,1337
66926,-734
66934,-2229
66941,-2036
66949,-852
66957,-52
66965,20
66973,-49
66980,-3
66988,20
66996,24
67004,36
67012,47
67020,63
67027,77
67035,84
67043,97
67051,117
67059,142
67066,158
67074,162
67082,142
67090,103
67098,40
67105,-23
67113,-80
67121,-116
67129,-152
67137,-183
67145,-209
67152,-232
67160,-253
67168,-262
67176,-251
67184,-217
67191,-175
67199,-141
67207,-120
67215,-103
67223,-84
67230,-73
67238,-70
67246,-66
67254,-63
67262,-65
67270,-70
67277,-75
67285,-67
67293,-62
67301,-65
67309,-88
67316,-89
67324,-62
67332,-16
67340,20
67348,17
67355,-25
67363,-83
67371,-121
67379,-118
67387,-88
67395,-72
67402,-65
67410,-39
67418,-32
67426,-48
67434,-117
67441,-149
67449,355
67457,1453
67465,2027
67473,1021
67480,-979
67488,-2207
67496,-1796
67504,-623
67512,31
67520,23
67527,-36
67535,13
67543,28
67551,31
67559,43
67566,49
67574,55
67582,65
67590,72
67598,88
67605,104
67613,121
67621,131
67629,132
67637,119
67645,87
67652,32
67660,-28
67668,-75
67676,-103
67684,-123
67691,-141
67699,-169
67707,-197
67715,-224
67723,-232
67730,-227
67738,-216
67746,-196
67754,-173
67762,-148
67770,-127
67777,-113
67785,-104
67793,-97
67801,-86
67809,-77
67816,-76
67824,-78
67832,-82
67840,-82
67848,-76
67855,-75
67863,-77
67871,-75
67879,-70
67887,-68
67895,-62
67902,-60
67910,-64
67918,-80
67926,-90
67934,-67
67941,-11
67949,35
67957,38
67965,-8
67973,-75
67980,-119
67988,-129
67996,-112
68004,-88
68012,-78
68020,-69
68027,-38
68035,-31
68043,-61
68051,-175
68059,-194
68066,436
68074,1599
68082,2016
68090,775
68098,-1244
68105,-2236
68113,-1614
68121,-458
68129,64
68137,1
68145,-34
68152,17
68160,29
68168,33
68176,45
68184,49
68191,53
68199,61
68207,73
68215,78
68223,81
68230,93
68238,118
68246,137
68254,133
68262,101
68270,46
68277,-15
68285,-68
68293,-102
68301,-116
68309,-121
68316,-133
68324,-167
68332,-210
68340,-245
68348,-249
68355,-242
68363,-224
68371,-205
68379,-175
68387,-146
68395,-131
68402,-118
68410,-99
68418,-76
68426,-67
68434,-65
68441,-72
68449,-77
68457,-77
68465,-75
68473,-85
68480,-96
68488,-92
68496,-73
68504,-64
68512,-66
68520,-72
68527,-71
68535,-69
68543,-67
68551,-59
68559,-49
68566,-61
68574,-74
68582,-61
68590,-10
68598,34
68605,43
68613,4
68621,-65
68629,-121
68637,-143
68645,-127
68652,-98
68660,-90
68668,-85
68676,-45
68684,-25
68691,-58
68699,-155
68707,-225
68715,244
68723,1388
68730,2131
68738,1273
68746,-773
68754,-2214
68762,-1973
68770,-784
68777,-11
68785,41
68793,-33
68801,-2
68809,10
68816,17
68824,41
68832,46
68840,36
68848,33
68855,47
68863,71
68871,94
68879,98
68887,101
68895,107
68902,107
68910,90
68918,54
68926,-1
68934,-64
68941,-116
68949,-140
68957,-144
68965,-144
68973,-166
68980,-204
68988,-236
68996,-254
69004,-253
69012,-240
69020,-216
69027,-189
69035,-161
69043,-143
69051,-123
69059,-108
69066,-99
69074,-93
69082,-82
69090,-73
69098,-71
69105,-72
69113,-81
69121,-86
69129,-83
69137,-79
69145,-77
69152,-78
69160,-78
69168,-73
69176,-70
69184,-67
69191,-72
69199,-70
69207,-52
69215,-45
69223,-63
69230,-83
69238,-74
69246,-22
69254,29
69262,46
69270,9
69277,-58
69285,-110
69293,-128
69301,-106
69309,-80
69316,-72
69324,-46
69332,-29
69340,-42
69348,-108
69355,-199
69363,124
69371,1140
69379,1943
69387,1316
69395,-544
69402,-2009
69410,-1906
69418,-797
69426,-13
69434,49
69441,-45
69449,-5
69457,12
69465,10
69473,21
69480,32
69488,47
69496,54
69504,57
69512,63
69520,75
69527,86
69535,94
69543,95
69551,91
69559,75
69566,50
69574,11
69582,-37
69590,-87
69598,-113
69605,-120
69613,-119
69621,-138
69629,-168
69637,-203
69645,-218
69652,-218
69660,-210
69668,-195
69676,-171
69684,-149
69691,-126
69699,-110
69707,-99
69715,-89
69723,-79
69730,-78
69738,-79
69746,-75
69754,-71
69762,-72
69770,-75
69777,-74
69785,-63
69793,-55
69801,-63
69809,-74
69816,-76
69824,-64
69832,-55
69840,-50
69848,-52
69855,-50
69863,-49
69871,-61
69879,-77
69887,-76
69895,-45
69902,4
69910,27
69918,4
69926,-48
69934,-86
69941,-85
69949,-62
69957,-54
69965,-48
69973,-31
69980,-21
69988,-25
69996,-105
70004,-61
70012,618
70020,1635
70027,1726
70035,286
70043,-1557
70051,-2155
70059,-1290
70066,-191
70074,165
70082,55
70090,31
70098,58
70105,39
70113,39
70121,49
70129,53
70137,58
70145,64
70152,71
70160,76
70168,77
70176,87
70184,100
70191,110
70199,100
70207,68
70215,23
70223,-20
70230,-57
70238,-79
70246,-95
70254,-109
70262,-145
70270,-199
70277,-255
70285,-285
70293,-293
70301,-287
70309,-270
70316,-238
70324,-197
70332,-167
70340,-153
70348,-142
70355,-124
70363,-102
70371,-93
70379,-89
70387,-89
70395,-88
70402,-89
70410,-84
70418,-84
70426,-82
70434,-81
70441,-81
70449,-76
70457,-63
70465,-58
70473,-62
70480,-71
70488,-68
70496,-52
70504,-19
70512,-4
70520,-15
70527,-52
70535,-87
70543,-99
70551,-85
70559,-71
70566,-59
70574,-31
70582,-33
70590,-62
70598,-149
70605,-141
70613,461
70621,1517
70629,1841
70637,612
70645,-1310
70652,-2219
70660,-1560
70668,-381
70676,163
70684,108
70691,46
70699,60
70707,49
70715,45
70723,52
70730,54
70738,52
70746,47
70754,45
70762,58
70770,75
70777,92
70785,108
70793,115
70801,112
70809,86
70816,42
70824,-20
70832,-75
70840,-113
70848,-123
70855,-131
70863,-160
70871,-204
70879,-246
70887,-267
70895,-267
70902,-257
70910,-239
70918,-219
70926,-196
70934,-172
70941,-144
70949,-121
70957,-103
70965,-95
70973,-86
70980,-81
70988,-77
70996,-82
71004,-87
71012,-92
71020,-90
71027,-87
71035,-83
71043,-79
71051,-77
71059,-77
71066,-78
71074,-73
71082,-63
71090,-60
71098,-68
71105,-85
71113,-87
71121,-59
71129,-13
71137,16
71145,7
71152,-42
71160,-90
71168,-111
71176,-94
71184,-77
71191,-62
71199,-38
71207,-26
71215,-46
71223,-136
71230,-201
71238,266
71246,1313
71254,1860
71262,899
71270,-965
71277,-2064
71285,-1616
71293,-502
71301,87
71309,51
71316,-10
71324,33
71332,44
71340,37
71348,35
71355,37
71363,48
71371,62
71379,76
71387,84
71395,84
71402,90
71410,103
71418,113
71426,115
71434,95
71441,57
71449,10
71457,-36
71465,-75
71473,-90
71480,-84
71488,-94
71496,-123
71504,-162
71512,-193
71520,-207
71527,-211
71535,-204
71543,-186
71551,-163
71559,-144
71566,-128
71574,-108
71582,-93
71590,-90
71598,-85
71605,-75
71613,-69
71621,-69
71629,-73
71637,-77
71645,-71
71652,-62
71660,-59
71668,-65
71676,-73
71684,-77
71691,-69
71699,-54
71707,-47
71715,-47
71723,-44
71730,-39
71738,-37
71746,-43
71754,-48
71762,-49
71770,-42
71777,-40
71785,-38
71793,-29
71801,-25
71809,-41
71816,-70
71824,-81
71832,-59
71840,-19
71848,8
71855,11
71863,-15
71871,-62
71879,-98
71887,-98
71895,-80
71902,-69
71910,-45
71918,-24
71926,-36
71934,-104
71941,-230
71949,-8
71957,940
71965,1902
71973,1571
71980,-184
71988,-1868
71996,-2074
72004,-1050
72012,-128
72020,56
72027,-33
72035,-10
72043,16
72051,14
72059,26
72066,39
72074,48
72082,53
72090,60
72098,75
72105,85
72113,83
72121,85
72129,91
72137,95
72145,89
72152,67
72160,31
72168,-9
72176,-43
72184,-62
72191,-66
72199,-72
72207,-108
72215,-159
72223,-200
72230,-215
72238,-228
72246,-248
72254,-255
72262,-228
72270,-185
72277,-162
72285,-153
72293,-139
72301,-113
72309,-93
72316,-88
72324,-85
72332,-71
72340,-68
72348,-75
72355,-80
72363,-78
72371,-72
72379,-71
72387,-75
72395,-74
72402,-73
72410,-73
72418,-73
72426,-67
72434,-58
72441,-56
72449,-53
72457,-59
72465,-62
72473,-52
72480,-34
72488,-37
72496,-59
72504,-80
72512,-80
72520,-63
72527,-33
72535,-6
72543,-11
72551,-48
72559,-89
72566,-104
72574,-87
72582,-79
72590,-75
72598,-48
72605,-34
72613,-57
72621,-155
72629,-213
72637,293
72645,1411
72652,2009
72660,1014
72668,-975
72676,-2199
72684,-1788
72691,-609
72699,59
72707,55
72715,-17
72723,12
72730,21
72738,20
72746,29
72754,33
72762,44
72770,57
72777,63
72785,68
72793,75
72801,88
72809,99
72816,101
72824,95
72832,78
72840,49
72848,1
72855,-52
72863,-95
72871,-118
72879,-120
72887,-126
72895,-146
72902,-190
72910,-230
72918,-252
72926,-253
72934,-237
72941,-217
72949,-195
72957,-182
72965,-166
72973,-144
72980,-115
72988,-97
72996,-89
73004,-86
73012,-81
73020,-78
73027,-79
73035,-83
73043,-82
73051,-80
73059,-85
73066,-82
73074,-73
73082,-68
73090,-70
73098,-73
73105,-76
73113,-69
73121,-60
73129,-61
73137,-62
73145,-61
73152,-60
73160,-65
73168,-81
73176,-81
73184,-54
73191,-7
73199,16
73207,-1
73215,-54
73223,-100
73230,-108
73238,-80
73246,-73
73254,-73
73262,-52
73270,-41
73277,-59
73285,-150
73293,-184
73301,348
73309,1413
73316,1867
73324,793
73332,-1086
73340,-2097
73348,-1569
73355,-461
73363,68
73371,15
73379,-40
73387,8
73395,11
73402,13
73410,25
73418,32
73426,41
73434,42
73441,53
73449,67
73457,78
73465,90
73473,97
73480,97
73488,85
73496,61
73504,35
73512,-1
73520,-42
73527,-74
73535,-88
73543,-92
73551,-104
73559,-133
73566,-170
73574,-197
73582,-215
73590,-221
73598,-212
73605,-192
73613,-172
73621,-157
73629,-144
73637,-125
73645,-106
73652,-91
73660,-80
73668,-79
73676,-80
73684,-82
73691,-75
73699,-71
73707,-72
73715,-75
73723,-76
73730,-75
73738,-73
73746,-71
73754,-68
73762,-74
73770,-75
73777,-72
73785,-60
73793,-58
73801,-59
73809,-61
73816,-56
73824,-54
73832,-55
73840,-56
73848,-53
73855,-53
73863,-69
73871,-81
73879,-64
73887,-13
73895,29
73902,23
73910,-30
73918,-82
73926,-104
73934,-93
73941,-78
73949,-73
73957,-50
73965,-37
73973,-52
73980,-110
73988,-202
73996,98
74004,1054
74012,1842
74020,1281
74027,-500
74035,-1945
74043,-1878
74051,-795
74059,7
74066,94
74074,-4
74082,11
74090,16
74098,7
74105,14
74113,37
74121,69
74129,82
74137,71
74145,54
74152,51
74160,62
74168,78
74176,92
74184,97
74191,92
74199,62
74207,23
74215,-19
74223,-42
74230,-53
74238,-67
74246,-93
74254,-126
74262,-163
74270,-202
74277,-240
74285,-266
74293,-265
74301,-244
74309,-219
74316,-201
74324,-187
74332,-166
74340,-142
74348,-110
74355,-86
74363,-73
74371,-75
74379,-76
74387,-76
74395,-71
74402,-71
74410,-74
74418,-80
74426,-84
74434,-83
74441,-76
74449,-73
74457,-70
74465,-70
74473,-71
74480,-74
74488,-71
74496,-56
74504,-48
74512,-56
74520,-68
74527,-73
74535,-68
74543,-44
74551,-14
74559,0
74566,-25
74574,-76
74582,-106
74590,-96
74598,-77
74605,-76
74613,-57
74621,-32
74629,-44
74637,-89
74645,-188
74652,-96
74660,633
74668,1642
74676,1685
74684,248
74691,-1545
74699,-2115
74707,-1272
74715,-210
74723,138
74730,39
74738,14
74746,43
74754,35
74762,37
74770,39
74777,40
74785,43
74793,56
74801,68
74809,80
74816,84
74824,92
74832,102
74840,107
74848,96
74855,67
74863,37
74871,7
74879,-28
74887,-51
74895,-74
74902,-104
74910,-147
74918,-190
74926,-226
74934,-254
74941,-278
74949,-284
74957,-267
74965,-236
74973,-207
74980,-187
74988,-165
74996,-135
75004,-107
75012,-85
75020,-87
75027,-95
75035,-89
75043,-70
75051,-63
75059,-66
75066,-77
75074,-80
75082,-77
75090,-73
75098,-72
75105,-73
75113,-69
75121,-63
75129,-53
75137,-47
75145,-54
75152,-69
75160,-72
75168,-47
75176,-7
75184,10
75191,-24
75199,-71
75207,-108
75215,-109
75223,-81
75230,-63
75238,-56
75246,-39
75254,-45
75262,-56
75270,-112
75277,-107
75285,424
75293,1414
75301,1763
75309,644
75316,-1181
75324,-2097
75332,-1520
75340,-408
75348,113
75355,62
75363,8
75371,37
75379,33
75387,31
75395,40
75402,43
75410,43
75418,48
75426,63
75434,77
75441,94
75449,103
75457,106
75465,108
75473,96
75480,73
75488,37
75496,-2
75504,-31
75512,-46
75520,-62
75527,-96
75535,-145
75543,-186
75551,-215
75559,-237
75566,-255
75574,-264
75582,-257
75590,-224
75598,-187
75605,-161
75613,-145
75621,-129
75629,-113
75637,-96
75645,-88
75652,-81
75660,-79
75668,-79
75676,-81
75684,-80
75691,-81
75699,-80
75707,-77
75715,-76
75723,-79
75730,-77
75738,-66
75746,-57
75754,-59
75762,-71
75770,-77
75777,-58
75785,-18
75793,16
75801,12
75809,-35
75816,-88
75824,-110
75832,-98
75840,-83
75848,-67
75855,-36
75863,-28
75871,-51
75879,-85
75887,-95
75895,295
75902,1200
75910,1726
75918,895
75926,-887
75934,-2046
75941,-1694
75949,-557
75957,107
75965,87
75973,-13
75980,22
75988,28
75996,14
76004,19
76012,36
76020,49
76027,45
76035,40
76043,50
76051,66
76059,79
76066,89
76074,86
76082,82
76090,68
76098,50
76105,31
76113,13
76121,-11
76129,-39
76137,-79
76145,-129
76152,-185
76160,-229
76168,-263
76176,-281
76184,-278
76191,-269
76199,-248
76207,-223
76215,-194
76223,-161
76230,-133
76238,-113
76246,-109
76254,-109
76262,-101
76270,-95
76277,-79
76285,-75
76293,-74
76301,-74
76309,-70
76316,-66
76324,-61
76332,-64
76340,-73
76348,-77
76355,-75
76363,-75
76371,-80
76379,-76
76387,-59
76395,-21
76402,7
76410,-2
76418,-43
76426,-89
76434,-113
76441,-107
76449,-83
76457,-73
76465,-52
76473,-31
76480,-37
76488,-51
76496,-106
76504,49
76512,804
76520,1651
76527,1414
76535,-169
76543,-1793
76551,-2044
76559,-1033
76566,-30
76574,200
76582,65
76590,29
76598,38
76605,30
76613,40
76621,47
76629,44
76637,49
76645,57
76652,73
76660,79
76668,77
76676,74
76684,85
76691,110
76699,130
76707,141
76715,130
76723,97
76730,54
76738,5
76746,-44
76754,-108
76762,-187
76770,-271
76777,-336
76785,-373
76793,-382
76801,-367
76809,-333
76816,-299
76824,-265
76832,-230
76840,-197
76848,-161
76855,-123
76863,-88
76871,-71
76879,-66
76887,-61
76895,-50
76902,-46
76910,-50
76918,-53
76926,-57
76934,-51
76941,-46
76949,-56
76957,-85
76965,-102
76973,-89
76980,-50
76988,-5
76996,14
77004,-9
77012,-51
77020,-96
77027,-106
77035,-85
77043,-68
77051,-65
77059,-37
77066,-26
77074,-46
77082,-99
77090,-130
77098,292
77105,1273
77113,1841
77121,964
77129,-899
77137,-2122
77145,-1777
77152,-620
77160,89
77168,110
77176,31
77184,54
77191,50
77199,29
77207,30
77215,36
77223,44
77230,47
77238,47
77246,57
77254,70
77262,90
77270,107
77277,114
77285,111
77293,99
77301,82
77309,58
77316,27
77324,-14
77332,-61
77340,-115
77348,-170
77355,-227
77363,-276
77371,-307
77379,-316
77387,-310
77395,-287
77402,-253
77410,-217
77418,-186
77426,-160
77434,-137
77441,-115
77449,-97
77457,-85
77465,-76
77473,-75
77480,-75
77488,-71
77496,-62
77504,-58
77512,-55
77520,-57
77527,-66
77535,-78
77543,-75
77551,-49
77559,-4
77566,18
77574,-3
77582,-57
77590,-99
77598,-107
77605,-80
77613,-61
77621,-51
77629,-23
77637,-9
77645,-29
77652,-100
77660,-158
77668,253
77676,1232
77684,1799
77691,921
77699,-903
77707,-2046
77715,-1654
77723,-506
77730,156
77738,141
77746,48
77754,67
77762,65
77770,60
77777,61
77785,58
77793,65
77801,74
77809,81
77816,93
77824,107
77832,121
77840,128
77848,133
77855,125
77863,106
77871,80
77879,61
77887,49
77895,33
77902,-9
77910,-78
77918,-155
77926,-213
77934,-257
77941,-278
77949,-285
77957,-279
77965,-258
77973,-225
77980,-197
77988,-180
77996,-163
78004,-140
78012,-103
78020,-75
78027,-70
78035,-74
78043,-64
78051,-54
78059,-58
78066,-69
78074,-66
78082,-52
78090,-49
78098,-61
78105,-71
78113,-60
78121,-36
78129,-8
78137,6
78145,-15
78152,-54
78160,-90
78168,-92
78176,-74
78184,-65
78191,-66
78199,-42
78207,-32
78215,-41
78223,-99
78230,-109
78238,411
78246,1454
78254,1885
78262,772
78270,-1187
78277,-2251
78285,-1697
78293,-478
78301,155
78309,128
78316,45
78324,58
78332,50
78340,51
78348,60
78355,60
78363,63
78371,72
78379,80
78387,84
78395,87
78402,109
78410,127
78418,126
78426,109
78434,95
78441,83
78449,61
78457,29
78465,-8
78473,-53
78480,-121
78488,-203
78496,-274
78504,-321
78512,-346
78520,-347
78527,-324
78535,-283
78543,-244
78551,-215
78559,-189
78566,-157
78574,-129
78582,-104
78590,-94
78598,-80
78605,-69
78613,-66
78621,-73
78629,-85
78637,-77
78645,-68
78652,-66
78660,-78
78668,-97
78676,-101
78684,-78
78691,-38
78699,-3
78707,-9
78715,-60
78723,-107
78730,-124
78738,-106
78746,-82
78754,-77
78762,-58
78770,-32
78777,-46
78785,-91
78793,-164
78801,85
78809,992
78816,1859
78824,1438
78832,-324
78840,-1927
78848,-2024
78855,-939
78863,-5
78871,152
78879,28
78887,34
78895,52
78902,40
78910,45
78918,48
78926,61
78934,72
78941,77
78949,86
78957,97
78965,115
78973,131
78980,133
78988,112
78996,74
79004,35
79012,-2
79020,-27
79027,-44
79035,-60
79043,-90
79051,-144
79059,-205
79066,-259
79074,-276
79082,-276
79090,-262
79098,-242
79105,-211
79113,-185
79121,-162
79129,-142
79137,-115
79145,-96
79152,-81
79160,-76
79168,-75
79176,-73
79184,-73
79191,-76
79199,-75
79207,-73
79215,-70
79223,-79
79230,-94
79238,-93
79246,-62
79254,-13
79262,16
79270,-1
79277,-54
79285,-103
79293,-121
79301,-105
79309,-85
79316,-75
79324,-49
79332,-22
79340,-37
79348,-80
79355,-156
79363,53
79371,885
79379,1689
79387,1300
79395,-353
79402,-1851
79410,-1917
79418,-856
79426,42
79434,178
79441,48
79449,49
79457,61
79465,42
79473,37
79480,42
79488,57
79496,67
79504,72
79512,81
79520,93
79527,99
79535,99
79543,95
79551,89
79559,78
79566,60
79574,35
79582,13
79590,3
79598,-20
79605,-68
79613,-142
79621,-211
79629,-251
79637,-264
79645,-264
79652,-258
79660,-242
79668,-221
79676,-199
79684,-175
79691,-149
79699,-127
79707,-108
79715,-95
79723,-90
79730,-83
79738,-77
79746,-84
79754,-87
79762,-83
79770,-70
79777,-56
79785,-48
79793,-51
79801,-62
79809,-77
79816,-82
79824,-62
79832,-18
79840,13
79848,0
79855,-41
79863,-85
79871,-102
79879,-89
79887,-70
79895,-73
79902,-57
79910,-32
79918,-30
79926,-59
79934,-139
79941,15
79949,831
79957,1764
79965,1550
79973,-103
79980,-1843
79988,-2165
79996,-1148
80004,-90
80012,192
80020,83
80027,58
80035,60
80043,47
80051,62
80059,72
80066,69
80074,59
80082,48
80090,61
80098,97
80105,127
80113,130
80121,113
80129,93
80137,79
80145,71
80152,48
80160,22
80168,4
80176,-19
80184,-63
80191,-130
80199,-212
80207,-284
80215,-337
80223,-349
80230,-328
80238,-284
80246,-250
80254,-229
80262,-205
80270,-168
80277,-136
80285,-116
80293,-102
80301,-89
80309,-83
80316,-86
80324,-87
80332,-82
80340,-69
80348,-66
80355,-68
80363,-70
80371,-75
80379,-95
80387,-97
80395,-62
80402,-5
80410,26
80418,5
80426,-56
80434,-113
80441,-136
80449,-127
80457,-99
80465,-85
80473,-85
80480,-55
80488,-30
80496,-40
80504,-102
80512,-178
80520,187
80527,1201
80535,1901
80543,1132
80551,-768
80559,-2132
80566,-1883
80574,-695
80582,84
80590,124
80598,27
80605,51
80613,54
80621,38
80629,37
80637,42
80645,55
80652,66
80660,73
80668,83
80676,98
80684,116
80691,121
80699,117
80707,91
80715,50
80723,-2
80730,-44
80738,-67
80746,-68
80754,-69
80762,-99
80770,-155
80777,-215
80785,-257
80793,-266
80801,-264
80809,-249
80816,-228
80824,-193
80832,-164
80840,-144
80848,-127
80855,-109
80863,-94
80871,-77
80879,-71
80887,-67
80895,-77
80902,-93
80910,-98
80918,-84
80926,-68
80934,-53
80941,-44
80949,-55
80957,-80
80965,-99
80973,-80
80980,-27
80988,21
80996,17
81004,-29
81012,-83
81020,-102
81027,-94
81035,-70
81043,-63
81051,-53
81059,-19
81066,-20
81074,-44
81082,-107
81090,-102
81098,446
81105,1456
81113,1805
81121,663
81129,-1181
81137,-2088
81145,-1498
81152,-405
81160,81
81168,13
81176,-18
81184,42
81191,48
81199,45
81207,45
81215,48
81223,57
81230,62
81238,68
81246,78
81254,91
81262,100
81270,97
81277,83
81285,58
81293,33
81301,2
81309,-38
81316,-66
81324,-78
81332,-89
81340,-119
81348,-166
81355,-217
81363,-257
81371,-275
81379,-271
81387,-252
81395,-229
81402,-199
81410,-164
81418,-127
81426,-107
81434,-105
81441,-98
81449,-84
81457,-77
81465,-84
81473,-84
81480,-75
81488,-58
81496,-59
81504,-70
81512,-73
81520,-60
81527,-55
81535,-62
81543,-69
81551,-66
81559,-62
81566,-48
81574,-25
81582,13
81590,26
81598,-5
81605,-74
81613,-133
81621,-139
81629,-99
81637,-73
81645,-60
81652,-32
81660,-18
81668,-21
81676,-88
81684,-131
81691,346
81699,1391
81707,1906
81715,880
81723,-1071
81730,-2212
81738,-1728
81746,-536
81754,106
81762,95
81770,36
81777,67
81785,53
81793,33
81801,24
81809,17
81816,25
81824,52
81832,85
81840,98
81848,97
81855,108
81863,120
81871,112
81879,77
81887,31
81895,-17
81902,-48
81910,-66
81918,-70
81926,-70
81934,-100
81941,-165
81949,-251
81957,-317
81965,-333
81973,-307
81980,-269
81988,-244
81996,-221
82004,-187
82012,-149
82020,-113
82027,-86
82035,-81
82043,-91
82051,-93
82059,-91
82066,-83
82074,-82
82082,-84
82090,-82
82098,-84
82105,-80
82113,-76
82121,-80
82129,-96
82137,-104
82145,-84
82152,-40
82160,-6
82168,7
82176,-15
82184,-56
82191,-98
82199,-114
82207,-105
82215,-80
82223,-74
82230,-66
82238,-35
82246,-17
82254,-31
82262,-118
82270,-165
82277,341
82285,1424
82293,1936
82301,879
82309,-1086
82316,-2208
82324,-1714
82332,-520
82340,121
82348,107
82355,34
82363,55
82371,53
82379,52
82387,51
82395,56
82402,66
82410,76
82418,79
82426,84
82434,98
82441,118
82449,130
82457,123
82465,95
82473,48
82480,-6
82488,-56
82496,-86
82504,-95
82512,-92
82520,-105
82527,-149
82535,-213
82543,-259
82551,-271
82559,-262
82566,-243
82574,-210
82582,-170
82590,-141
82598,-123
82605,-110
82613,-92
82621,-74
82629,-70
82637,-76
82645,-80
82652,-82
82660,-79
82668,-77
82676,-76
82684,-77
82691,-77
82699,-78
82707,-80
82715,-77
82723,-70
82730,-64
82738,-62
82746,-73
82754,-85
82762,-80
82770,-53
82777,-14
82785,10
82793,-3
82801,-43
82809,-86
82816,-107
82824,-96
82832,-66
82840,-60
82848,-53
82855,-33
82863,-18
82871,-24
82879,-122
82887,-21
82895,752
82902,1722
82910,1601
82918,25
82926,-1716
82934,-2105
82941,-1169
82949,-151
82957,132
82965,50
82973,48
82980,69
82988,65
82996,65
83004,62
83012,62
83020,71
83027,81
83035,92
83043,100
83051,117
83059,133
83066,140
83074,128
83082,96
83090,49
83098,-4
83105,-58
83113,-94
83121,-100
83129,-88
83137,-96
83145,-144
83152,-217
83160,-280
83168,-303
83176,-285
83184,-247
83191,-201
83199,-167
83207,-148
83215,-128
83223,-107
83230,-87
83238,-74
83246,-69
83254,-63
83262,-58
83270,-66
83277,-75
83285,-80
83293,-79
83301,-83
83309,-82
83316,-83
83324,-75
83332,-67
83340,-56
83348,-58
83355,-71
83363,-87
83371,-74
83379,-35
83387,10
83395,24
83402,2
83410,-55
83418,-109
83426,-126
83434,-110
83441,-77
83449,-71
83457,-82
83465,-59
83473,-31
83480,-33
83488,-131
83496,-237
83504,193
83512,1347
83520,2121
83527,1281
83535,-781
83543,-2246
83551,-2019
83559,-808
83566,-2
83574,86
83582,20
83590,47
83598,49
83605,46
83613,50
83621,55
83629,60
83637,68
83645,82
83652,100
83660,122
83668,141
83676,151
83684,151
83691,135
83699,95
83707,28
83715,-54
83723,-127
83730,-162
83738,-171
83746,-172
83754,-189
83762,-220
83770,-256
83777,-280
83785,-282
83793,-264
83801,-234
83809,-199
83816,-163
83824,-129
83832,-102
83840,-88
83848,-78
83855,-68
83863,-60
83871,-58
83879,-70
83887,-80
83895,-89
83902,-85
83910,-79
83918,-72
83926,-74
83934,-81
83941,-87
83949,-79
83957,-74
83965,-70
83973,-68
83980,-70
83988,-65
83996,-56
84004,-56
84012,-65
84020,-79
84027,-75
84035,-52
84043,-7
84051,23
84059,15
84066,-32
84074,-88
84082,-114
84090,-100
84098,-71
84105,-63
84113,-53
84121,-25
84129,-30
84137,-70
84145,-183
84152,-87
84160,717
84168,1814
84176,1860
84184,310
84191,-1594
84199,-2203
84207,-1346
84215,-276
84223,63
84230,-24
84238,-24
84246,21
84254,20
84262,28
84270,43
84277,55
84285,71
84293,76
84301,84
84309,100
84316,113
84324,125
84332,129
84340,128
84348,115
84355,77
84363,12
84371,-61
84379,-114
84387,-144
84395,-158
84402,-169
84410,-191
84418,-212
84426,-234
84434,-252
84441,-250
84449,-230
84457,-205
84465,-177
84473,-152
84480,-120
84488,-91
84496,-68
84504,-64
84512,-66
84520,-58
84527,-51
84535,-55
84543,-70
84551,-92
84559,-93
84566,-78
84574,-60
84582,-55
84590,-62
84598,-78
84605,-83
84613,-73
84621,-60
84629,-55
84637,-56
84645,-64
84652,-64
84660,-57
84668,-49
84676,-41
84684,-39
84691,-41
84699,-46
84707,-57
84715,-66
84723,-60
84730,-31
84738,5
84746,12
84754,-18
84762,-65
84770,-95
84777,-96
84785,-78
84793,-70
84801,-66
84809,-41
84816,-27
84824,-49
84832,-129
84840,-176
84848,335
84855,1498
84863,2164
84871,1179
84879,-907
84887,-2274
84895,-1938
84902,-737
84910,-14
84918,12
84926,-47
84934,9
84941,29
84949,32
84957,44
84965,60
84973,71
84980,74
84988,72
84996,85
85004,116
85012,145
85020,157
85027,156
85035,144
85043,118
85051,60
85059,-23
85066,-95
85074,-133
85082,-144
85090,-158
85098,-188
85105,-235
85113,-270
85121,-280
85129,-281
85137,-275
85145,-253
85152,-211
85160,-169
85168,-150
85176,-136
85184,-105
85191,-72
85199,-67
85207,-74
85215,-67
85223,-53
85230,-69
85238,-111
85246,-125
85254,-86
85262,-31
85270,-24
85277,-72
85285,-106
85293,-72
85301,-16
85309,-2
85316,-33
85324,-62
85332,-66
85340,-58
85348,-49
85355,-38
85363,-34
85371,-43
85379,-71
85387,-71
85395,-42
85402,-16
85410,-7
85418,-24
85426,-66
85434,-115
85441,-136
85449,-102
85457,-51
85465,-40
85473,-47
85480,-53
85488,-47
85496,-101
85504,-222
85512,71
85520,1193
85527,2248
85535,1752
85543,-314
85551,-2162
85559,-2282
85566,-1102
85574,-112
85582,62
85590,-42
85598,-16
85605,7
85613,11
85621,43
85629,66
85637,69
85645,53
85652,32
85660,36
85668,74
85676,124
85684,166
85691,197
85699,207
85707,169
85715,108
85723,26
85730,-60
85738,-150
85746,-216
85754,-233
85762,-238
85770,-280
85777,-343
85785,-372
85793,-339
85801,-290
85809,-272
85816,-277
85824,-261
85832,-207
85840,-135
85848,-78
85855,-52
85863,-40
85871,-46
85879,-59
85887,-60
85895,-44
85902,-30
85910,-48
85918,-80
85926,-99
85934,-93
85941,-81
85949,-81
85957,-87
85965,-83
85973,-65
85980,-25
85988,17
85996,19
86004,-41
86012,-117
86020,-160
86027,-158
86035,-131
86043,-115
86051,-129
86059,-116
86066,-75
86074,-39
86082,-87
86090,-251
86098,-96
86105,884
86113,2015
86121,1839
86129,42
86137,-1889
86145,-2337
86152,-1355
86160,-278
86168,89
86176,73
86184,80
86191,74
86199,52
86207,47
86215,45
86223,50
86230,62
86238,67
86246,82
86254,104
86262,131
86270,147
86277,152
86285,138
86293,104
86301,37
86309,-54
86316,-145
86324,-199
86332,-227
86340,-242
86348,-256
86355,-279
86363,-304
86371,-309
86379,-289
86387,-256
86395,-217
86402,-181
86410,-137
86418,-96
86426,-59
86434,-24
86441,-1
86449,-14
86457,-68
86465,-119
86473,-142
86480,-144
86488,-136
86496,-123
86504,-85
86512,-28
86520,-17
86527,-58
86535,-132
86543,-187
86551,-151
86559,-31
86566,69
86574,45
86582,-51
86590,-120
86598,-139
86605,-130
86613,-110
86621,-33
86629,64
86637,49
86645,-86
86652,-198
86660,-182
86668,-78
86676,3
86684,12
86691,-2
86699,12
86707,-43
86715,-153
86723,-248
86730,-98
86738,744
86746,2043
86754,2451
86762,995
86770,-1372
86777,-2657
86785,-2087
86793,-769
86801,-61
86809,-29
86816,3
86824,200
86832,260
86840,95
86848,-93
86855,-111
86863,44
86871,155
86879,102
86887,65
86895,187
86902,291
86910,217
86918,144
86926,200
86934,313
86941,276
86949,-11
86957,-255
86965,-210
86973,20
86980,158
86988,-61
86996,-485
87004,-693
87012,-581
87020,-373
87027,-251
87035,-213
87043,-221
87051,-162
87059,-41
87066,-40
87074,-147
87082,-185
87090,-95
87098,27
87105,53
87113,13
87121,-20
87129,-4
87137,16
87145,-31
87152,-85
87160,-132
87168,-181
87176,-131
87184,-16
87191,12
87199,-10
87207,23
87215,74
87223,44
87230,-62
87238,-184
87246,-209
87254,-73
87262,74
87270,127
87277,76
87285,-83
87293,-204
87301,-262
87309,-14
87316,1062
87324,2462
87332,2540
87340,528
87348,-2063
87355,-3007
87363,-1923
87371,-415
87379,153
87387,88
87395,119
87402,170
87410,158
87418,179
87426,134
87434,39
87441,2
87449,63
87457,185
87465,246
87473,249
87480,257
87488,243
87496,195
87504,200
87512,262
87520,216
87527,31
87535,-144
87543,-218
87551,-285
87559,-406
87566,-467
87574,-380
87582,-291
87590,-347
87598,-466
87605,-474
87613,-349
87621,-234
87629,-213
87637,-163
87645,-51
87652,25
87660,2
87668,-75
87676,-83
87684,-13
87691,14
87699,-37
87707,-97
87715,-88
87723,-49
87730,-68
87738,-119
87746,-136
87754,-90
87762,-53
87770,-41
87777,-32
87785,-10
87793,-7
87801,-81
87809,-178
87816,-194
87824,-125
87832,-55
87840,-50
87848,-69
87855,-64
87863,-57
87871,-140
87879,-292
87887,24
87895,1271
87902,2557
87910,2199
87918,-39
87926,-2296
87934,-2720
87941,-1535
87949,-351
87957,-10
87965,-51
87973,-19
87980,-4
87988,-16
87996,38
88004,84
88012,74
88020,59
88027,73
88035,108
88043,135
88051,167
88059,216
88066,267
88074,290
88082,263
88090,182
88098,77
88105,2
88113,-41
88121,-116
88129,-237
88137,-350
88145,-367
88152,-315
88160,-313
88168,-359
88176,-345
88184,-252
88191,-187
88199,-183
88207,-189
88215,-194
88223,-267
88230,-374
88238,-425
88246,-400
88254,-356
88262,-330
88270,-273
88277,-223
88285,-253
88293,-283
88301,-207
88309,-66
88316,11
88324,-44
88332,-204
88340,-319
88348,-184
88355,106
88363,257
88371,157
88379,-25
88387,-72
88395,-10
88402,-19
88410,-78
88418,-101
88426,-95
88434,-56
88441,46
88449,108
88457,12
88465,-245
88473,-248
88480,744
88488,2387
88496,2941
88504,1332
88512,-1281
88520,-2723
88527,-2197
88535,-835
88543,-25
88551,114
88559,115
88566,113
88574,136
88582,220
88590,262
88598,230
88605,206
88613,222
88621,250
88629,282
88637,300
88645,311
88652,337
88660,347
88668,316
88676,244
88684,161
88691,97
88699,40
88707,-49
88715,-177
88723,-298
88730,-381
88738,-441
88746,-491
88754,-499
88762,-429
88770,-304
88777,-205
88785,-183
88793,-193
88801,-177
88809,-137
88816,-85
88824,-42
88832,-21
88840,-37
88848,-60
88855,-64
88863,-44
88871,-39
88879,-63
88887,-78
88895,-79
88902,-84
88910,-87
88918,-71
88926,-33
88934,6
88941,2
88949,-72
88957,-161
88965,-200
88973,-168
88980,-107
88988,-63
88996,-50
89004,-8
89012,11
89020,-46
89027,-201
89035,-288
89043,304
89051,1728
89059,2710
89066,1752
89074,-740
89082,-2648
89090,-2562
89098,-1201
89105,-187
89113,-6
89121,-31
89129,38
89137,77
89145,77
89152,76
89160,58
89168,54
89176,88
89184,144
89191,180
89199,172
89207,164
89215,195
89223,222
89230,211
89238,180
89246,145
89254,83
89262,-16
89270,-119
89277,-198
89285,-282
89293,-379
89301,-436
89309,-408
89316,-330
89324,-276
89332,-251
89340,-240
89348,-238
89355,-222
89363,-158
89371,-58
89379,24
89387,24
89395,-44
89402,-112
89410,-121
89418,-89
89426,-73
89434,-84
89441,-98
89449,-87
89457,-44
89465,15
89473,37
89480,-19
89488,-143
89496,-232
89504,-180
89512,-64
89520,1
89527,-1
89535,14
89543,41
89551,18
89559,-57
89566,-126
89574,-128
89582,-103
89590,-98
89598,-36
89605,58
89613,75
89621,-64
89629,-192
89637,344
89645,1798
89652,2873
89660,1941
89668,-668
89676,-2742
89684,-2717
89691,-1297
89699,-193
89707,-6
89715,-95
89723,-46
89730,27
89738,86
89746,134
89754,100
89762,29
89770,18
89777,92
89785,178
89793,232
89801,253
89809,241
89816,237
89824,271
89832,301
89840,254
89848,118
89855,-21
89863,-116
89871,-190
89879,-292
89887,-405
89895,-468
89902,-477
89910,-445
89918,-382
89926,-308
89934,-252
89941,-234
89949,-218
89957,-168
89965,-114
89973,-81
89980,-74
89988,-62
89996,-34
90004,-9
90012,-16
90020,-35
90027,-38
90035,-37
90043,-43
90051,-50
90059,-62
90066,-64
90074,-49
90082,-35
90090,-44
90098,-69
90105,-104
90113,-123
90121,-124
90129,-105
90137,-94
90145,-102
90152,-86
90160,-36
90168,-17
90176,-98
90184,-267
90191,19
90199,1251
90207,2522
90215,2166
90223,-39
90230,-2270
90238,-2712
90246,-1549
90254,-354
90262,3
90270,-37
90277,1
90285,43
90293,42
90301,45
90309,39
90316,42
90324,59
90332,74
90340,93
90348,125
90355,165
90363,207
90371,234
90379,240
90387,204
90395,122
90402,22
90410,-74
90418,-164
90426,-240
90434,-304
90441,-347
90449,-375
90457,-395
90465,-383
90473,-338
90480,-280
90488,-236
90496,-205
90504,-163
90512,-115
90520,-76
90527,-62
90535,-53
90543,-46
90551,-41
90559,-45
90566,-51
90574,-57
90582,-64
90590,-78
90598,-90
90605,-94
90613,-97
90621,-99
90629,-103
90637,-111
90645,-111
90652,-81
90660,-36
90668,2
90676,-7
90684,-62
90691,-106
90699,-114
90707,-96
90715,-81
90723,-95
90730,-88
90738,-44
90746,-31
90754,-83
90762,-189
90770,-72
90777,819
90785,2163
90793,2455
90801,826
90809,-1565
90816,-2691
90824,-1983
90832,-691
90840,-87
90848,-92
90855,-79
90863,7
90871,25
90879,25
90887,30
90895,36
90902,53
90910,69
90918,92
90926,125
90934,164
90941,197
90949,226
90957,226
90965,190
90973,123
90980,43
90988,-32
90996,-95
91004,-154
91012,-210
91020,-261
91027,-303
91035,-320
91043,-320
91051,-313
91059,-289
91066,-244
91074,-183
91082,-133
91090,-106
91098,-96
91105,-95
91113,-94
91121,-89
91129,-78
91137,-67
91145,-67
91152,-74
91160,-77
91168,-67
91176,-49
91184,-38
91191,-50
91199,-67
91207,-78
91215,-71
91223,-53
91230,-15
91238,22
91246,30
91254,-7
91262,-60
91270,-85
91277,-69
91285,-41
91293,-37
91301,-47
91309,-25
91316,-10
91324,-41
91332,-120
91340,-181
91348,254
91355,1452
91363,2401
91371,1701
91379,-477
91387,-2287
91395,-2329
91402,-1132
91410,-190
91418,-38
91426,-98
91434,-27
91441,20
91449,22
91457,25
91465,32
91473,50
91480,78
91488,92
91496,100
91504,121
91512,159
91520,193
91527,203
91535,188
91543,151
91551,88
91559,2
91566,-83
91574,-140
91582,-178
91590,-207
91598,-248
91605,-282
91613,-307
91621,-299
91629,-271
91637,-229
91645,-190
91652,-155
91660,-128
91668,-108
91676,-101
91684,-99
91691,-105
91699,-114
91707,-122
91715,-122
91723,-118
91730,-108
91738,-98
91746,-94
91754,-97
91762,-96
91770,-85
91777,-71
91785,-67
91793,-71
91801,-71
91809,-52
91816,-7
91824,25
91832,18
91840,-22
91848,-69
91855,-90
91863,-77
91871,-51
91879,-53
91887,-57
91895,-36
91902,-33
91910,-70
91918,-182
91926,-163
91934,574
91941,1896
91949,2398
91957,1043
91965,-1255
91973,-2509
91980,-1954
91988,-690
91996,-40
92004,-40
92012,-51
92020,24
92027,37
92035,40
92043,58
92051,72
92059,87
92066,99
92074,118
92082,144
92090,164
92098,181
92105,203
92113,218
92121,197
92129,135
92137,50
92145,-35
92152,-110
92160,-163
92168,-190
92176,-213
92184,-247
92191,-280
92199,-304
92207,-302
92215,-279
92223,-245
92230,-206
92238,-170
92246,-144
92254,-125
92262,-112
92270,-104
92277,-102
92285,-95
92293,-86
92301,-83
92309,-84
92316,-82
92324,-76
92332,-74
92340,-78
92348,-88
92355,-93
92363,-93
92371,-70
92379,-43
92387,-25
92395,-44
92402,-84
92410,-113
92418,-112
92426,-83
92434,-55
92441,-57
92449,-45
92457,-14
92465,-11
92473,-72
92480,-216
92488,-108
92496,806
92504,2071
92512,2195
92520,542
92527,-1598
92535,-2410
92543,-1608
92551,-478
92559,-61
92566,-110
92574,-96
92582,-43
92590,-38
92598,-19
92605,9
92613,34
92621,55
92629,58
92637,72
92645,101
92652,135
92660,160
92668,166
92676,141
92684,97
92691,34
92699,-41
92707,-112
92715,-164
92723,-183
92730,-198
92738,-219
92746,-240
92754,-249
92762,-240
92770,-228
92777,-209
92785,-182
92793,-151
92801,-132
92809,-121
92816,-112
92824,-102
92832,-95
92840,-93
92848,-102
92855,-104
92863,-105
92871,-93
92879,-83
92887,-75
92895,-73
92902,-76
92910,-90
92918,-93
92926,-73
92934,-27
92941,15
92949,14
92957,-33
92965,-85
92973,-102
92980,-91
92988,-65
92996,-56
93004,-47
93012,-17
93020,-14
93027,-44
93035,-139
93043,-178
93051,365
93059,1514
93066,2116
93074,1094
93082,-929
93090,-2188
93098,-1817
93105,-687
93113,-46
93121,-35
93129,-67
93137,-5
93145,11
93152,9
93160,22
93168,45
93176,69
93184,79
93191,87
93199,104
93207,128
93215,149
93223,153
93230,141
93238,118
93246,72
93254,20
93262,-36
93270,-78
93277,-100
93285,-106
93293,-130
93301,-170
93309,-204
93316,-211
93324,-204
93332,-201
93340,-208
93348,-198
93355,-171
93363,-146
93371,-137
93379,-133
93387,-130
93395,-118
93402,-97
93410,-83
93418,-81
93426,-88
93434,-93
93441,-88
93449,-86
93457,-93
93465,-91
93473,-49
93480,10
93488,30
93496,-10
93504,-66
93512,-100
93520,-99
93527,-81
93535,-59
93543,-47
93551,-24
93559,-7
93566,-17
93574,-58
93582,-149
93590,82
93598,1042
93605,2039
93613,1716
93621,-114
93629,-1929
93637,-2226
93645,-1189
93652,-194
93660,39
93668,-41
93676,-10
93684,36
93691,43
93699,49
93707,58
93715,66
93723,78
93730,91
93738,112
93746,145
93754,173
93762,188
93770,173
93777,135
93785,79
93793,9
93801,-67
93809,-134
93816,-159
93824,-142
93832,-134
93840,-175
93848,-247
93855,-290
93863,-287
93871,-257
93879,-232
93887,-213
93895,-191
93902,-163
93910,-140
93918,-130
93926,-123
93934,-112
93941,-105
93949,-100
93957,-92
93965,-80
93973,-71
93980,-81
93988,-102
93996,-110
94004,-81
94012,-27
94020,-2
94027,-46
94035,-131
94043,-185
94051,-153
94059,-68
94066,-7
94074,-11
94082,-24
94090,-44
94098,-75
94105,-129
94113,-143
94121,273
94129,1270
94137,1914
94145,1127
94152,-741
94160,-2077
94168,-1856
94176,-730
94184,22
94191,68
94199,-30
94207,-2
94215,22
94223,29
94230,46
94238,59
94246,69
94254,77
94262,91
94270,108
94277,120
94285,121
94293,113
94301,100
94309,79
94316,42
94324,-4
94332,-43
94340,-73
94348,-92
94355,-104
94363,-126
94371,-156
94379,-185
94387,-205
94395,-214
94402,-216
94410,-210
94418,-187
94426,-167
94434,-150
94441,-133
94449,-112
94457,-103
94465,-97
94473,-94
94480,-82
94488,-71
94496,-79
94504,-89
94512,-68
94520,-28
94527,6
94535,-7
94543,-57
94551,-110
94559,-130
94566,-116
94574,-87
94582,-85
94590,-75
94598,-40
94605,-22
94613,-65
94621,-197
94629,-195
94637,437
94645,1478
94652,1740
94660,531
94668,-1223
94676,-1965
94684,-1318
94691,-314
94699,81
94707,11
94715,-5
94723,43
94730,38
94738,34
94746,48
94754,69
94762,91
94770,101
94777,107
94785,113
94793,122
94801,120
94809,112
94816,93
94824,65
94832,34
94840,2
94848,-17
94855,-23
94863,-40
94871,-75
94879,-125
94887,-175
94895,-211
94902,-247
94910,-269
94918,-273
94926,-253
94934,-220
94941,-195
94949,-185
94957,-177
94965,-156
94973,-130
94980,-102
94988,-101
94996,-101
95004,-91
95012,-54
95020,-7
95027,7
95035,-19
95043,-61
95051,-89
95059,-94
95066,-94
95074,-82
95082,-81
95090,-64
95098,-31
95105,-25
95113,-79
95121,-227
95129,-201
95137,528
95145,1621
95152,1794
95160,442
95168,-1347
95176,-1990
95184,-1239
95191,-222
95199,122
95207,14
95215,-29
95223,-3
95230,12
95238,39
95246,58
95254,60
95262,56
95270,59
95277,71
95285,95
95293,113
95301,117
95309,106
95316,88
95324,66
95332,28
95340,-23
95348,-55
95355,-57
95363,-60
95371,-97
95379,-159
95387,-220
95395,-259
95402,-277
95410,-273
95418,-237
95426,-196
95434,-177
95441,-191
95449,-196
95457,-165
95465,-128
95473,-113
95480,-123
95488,-137
95496,-138
95504,-117
95512,-68
95520,-13
95527,8
95535,-39
95543,-113
95551,-153
95559,-144
95566,-120
95574,-113
95582,-103
95590,-61
95598,-41
95605,-75
95613,-203
95621,-230
95629,341
95637,1382
95645,1737
95652,615
95660,-1154
95668,-1975
95676,-1361
95684,-308
95691,136
95699,46
95707,-13
95715,17
95723,22
95730,34
95738,52
95746,54
95754,53
95762,64
95770,85
95777,97
95785,97
95793,92
95801,100
95809,88
95816,52
95824,-1
95832,-41
95840,-57
95848,-64
95855,-72
95863,-89
95871,-120
95879,-156
95887,-185
95895,-199
95902,-207
95910,-212
95918,-209
95926,-187
95934,-160
95941,-139
95949,-117
95957,-106
95965,-112
95973,-124
95980,-126
95988,-94
95996,-54
96004,-31
96012,-32
96020,-54
96027,-85
96035,-104
96043,-112
96051,-107
96059,-98
96066,-88
96074,-57
96082,-25
96090,-41
96098,-139
96105,-314
96113,-138
96121,747
96129,1649
96137,1358
96145,-185
96152,-1581
96160,-1641
96168,-704
96176,49
96184,137
96191,31
96199,46
96207,64
96215,63
96223,75
96230,85
96238,98
96246,92
96254,73
96262,77
96270,103
96277,128
96285,125
96293,111
96301,100
96309,69
96316,12
96324,-39
96332,-50
96340,-41
96348,-49
96355,-92
96363,-143
96371,-190
96379,-232
96387,-268
96395,-274
96402,-247
96410,-207
96418,-184
96426,-168
96434,-160
96441,-156
96449,-171
96457,-183
96465,-166
96473,-122
96480,-76
96488,-34
96496,-17
96504,-34
96512,-80
96520,-119
96527,-135
96535,-111
96543,-79
96551,-71
96559,-54
96566,-21
96574,-28
96582,-117
96590,-308
96598,-223
96605,632
96613,1718
96621,1678
96629,145
96637,-1562
96645,-1948
96652,-1049
96660,-119
96668,96
96676,-14
96684,-9
96691,24
96699,24
96707,36
96715,48
96723,57
96730,68
96738,83
96746,101
96754,117
96762,130
96770,141
96777,137
96785,103
96793,44
96801,-25
96809,-70
96816,-84
96824,-84
96832,-94
96840,-129
96848,-181
96855,-224
96863,-249
96871,-246
96879,-230
96887,-209
96895,-191
96902,-173
96910,-155
96918,-132
96926,-105
96934,-90
96941,-97
96949,-110
96957,-104
96965,-70
96973,-25
96980,3
96988,-13
96996,-66
97004,-120
97012,-133
97020,-110
97027,-87
97035,-94
97043,-85
97051,-43
97059,-37
97066,-132
97074,-360
97082,-299
97090,571
97098,1689
97105,1705
97113,232
97121,-1426
97129,-1817
97137,-995
97145,-147
97152,38
97160,-53
97168,-31
97176,9
97184,10
97191,16
97199,25
97207,45
97215,69
97223,88
97230,105
97238,118
97246,130
97254,135
97262,125
97270,101
97277,60
97285,9
97293,-28
97301,-51
97309,-60
97316,-72
97324,-105
97332,-150
97340,-202
97348,-233
97355,-242
97363,-237
97371,-228
97379,-213
97387,-193
97395,-171
97402,-157
97410,-145
97418,-127
97426,-117
97434,-123
97441,-125
97449,-110
97457,-73
97465,-33
97473,-8
97480,-13
97488,-51
97496,-103
97504,-138
97512,-131
97520,-101
97527,-95
97535,-87
97543,-49
97551,-39
97559,-95
97566,-265
97574,-242
97582,488
97590,1517
97598,1604
97605,269
97613,-1362
97621,-1826
97629,-1035
97637,-123
97645,123
97652,14
97660,7
97668,36
97676,33
97684,38
97691,47
97699,61
97707,74
97715,82
97723,80
97730,87
97738,103
97746,123
97754,129
97762,112
97770,76
97777,27
97785,-24
97793,-52
97801,-52
97809,-50
97816,-68
97824,-105
97832,-155
97840,-192
97848,-216
97855,-224
97863,-214
97871,-194
97879,-178
97887,-167
97895,-148
97902,-135
97910,-125
97918,-116
97926,-94
97934,-74
97941,-71
97949,-92
97957,-99
97965,-68
97973,-9
97980,32
97988,21
97996,-45
98004,-108
98012,-132
98020,-112
98027,-88
98035,-85
98043,-67
98051,-36
98059,-43
98066,-111
98074,-248
98082,-70
98090,843
98098,1840
98105,1601
98113,-80
98121,-1755
98129,-1996
98137,-1003
98145,-82
98152,96
98160,-7
98168,7
98176,28
98184,17
98191,25
98199,34
98207,53
98215,68
98223,76
98230,80
98238,92
98246,108
98254,117
98262,115
98270,96
98277,59
98285,8
98293,-41
98301,-58
98309,-49
98316,-47
98324,-78
98332,-139
98340,-201
98348,-242
98355,-263
98363,-268
98371,-254
98379,-225
98387,-188
98395,-158
98402,-136
98410,-122
98418,-111
98426,-98
98434,-95
98441,-89
98449,-78
98457,-72
98465,-82
98473,-109
98480,-108
98488,-69
98496,-14
98504,19
98512,3
98520,-47
98527,-104
98535,-139
98543,-135
98551,-107
98559,-95
98566,-76
98574,-43
98582,-39
98590,-76
98598,-178
98605,-141
98613,544
98621,1628
98629,1855
98637,511
98645,-1378
98652,-2148
98660,-1415
98668,-321
98676,92
98684,9
98691,-13
98699,28
98707,22
98715,21
98723,32
98730,41
98738,52
98746,64
98754,79
98762,94
98770,104
98777,109
98785,110
98793,105
98801,80
98809,38
98816,-19
98824,-57
98832,-72
98840,-63
98848,-72
98855,-110
98863,-167
98871,-214
98879,-239
98887,-241
98895,-234
98902,-220
98910,-198
98918,-170
98926,-145
98934,-124
98941,-111
98949,-99
98957,-92
98965,-86
98973,-81
98980,-79
98988,-77
98996,-80
99004,-76
99012,-67
99020,-76
99027,-101
99035,-115
99043,-84
99051,-22
99059,22
99066,9
99074,-44
99082,-101
99090,-135
99098,-126
99105,-96
99113,-85
99121,-62
99129,-37
99137,-42
99145,-72
99152,-155
99160,-3
99168,810
99176,1754
99184,1560
99191,-55
99199,-1754
99207,-2069
99215,-1084
99223,-100
99230,113
99238,-13
99246,-9
99254,27
99262,21
99270,26
99277,32
99285,42
99293,58
99301,67
99309,75
99316,85
99324,96
99332,101
99340,100
99348,86
99355,66
99363,32
99371,-9
99379,-45
99387,-51
99395,-40
99402,-42
99410,-80
99418,-138
99426,-192
99434,-222
99441,-229
99449,-222
99457,-205
99465,-181
99473,-156
99480,-138
99488,-122
99496,-107
99504,-92
99512,-85
99520,-82
99527,-82
99535,-78
99543,-72
99551,-67
99559,-63
99566,-66
99574,-69
99582,-75
99590,-74
99598,-72
99605,-69
99613,-69
99621,-61
99629,-67
99637,-82
99645,-78
99652,-43
99660,8
99668,38
99676,25
99684,-30
99691,-97
99699,-136
99707,-138
99715,-102
99723,-80
99730,-71
99738,-53
99746,-49
99754,-51
99762,-87
99770,-107
99777,357
99785,1332
99793,1765
99801,722
99809,-1134
99816,-2132
99824,-1579
99832,-418
99840,145
99848,78
99855,9
99863,42
99871,32
99879,26
99887,40
99895,53
99902,60
99910,61
99918,67
99926,73
99934,79
99941,86
99949,91
99957,90
99965,79
99973,47
99980,6
99988,-19
99996,-21
100004,-19
100012,-28
100020,-63
100027,-114
100035,-178
100043,-231
100051,-263
100059,-269
100066,-267
100074,-251
100082,-231
100090,-200
100098,-166
100105,-138
100113,-124
100121,-112
100129,-102
100137,-89
100145,-77
100152,-74
100160,-72
100168,-72
100176,-67
100184,-68
100191,-71
100199,-79
100207,-80
100215,-78
100223,-74
100230,-67
100238,-64
100246,-71
100254,-91
100262,-96
100270,-63
100277,-8
100285,28
100293,18
100301,-34
100309,-92
100316,-123
100324,-116
100332,-98
100340,-88
100348,-60
100355,-41
100363,-51
100371,-89
100379,-155
100387,124
100395,1031
100402,1778
100410,1205
100418,-555
100426,-1975
100434,-1881
100441,-780
100449,28
100457,97
100465,-12
100473,11
100480,23
100488,16
100496,26
100504,34
100512,41
100520,49
100527,57
100535,67
100543,77
100551,81
100559,81
100566,76
100574,67
100582,46
100590,15
100598,-16
100605,-41
100613,-52
100621,-60
100629,-76
100637,-112
100645,-159
100652,-194
100660,-225
100668,-255
100676,-275
100684,-268
100691,-233
100699,-190
100707,-157
100715,-138
100723,-123
100730,-112
100738,-100
100746,-83
100754,-67
100762,-66
100770,-83
100777,-90
100785,-77
100793,-65
100801,-78
100809,-103
100816,-105
100824,-86
100832,-79
100840,-98
100848,-108
100855,-85
100863,-44
100871,-23
100879,-42
100887,-79
100895,-76
100902,-26
100910,15
100918,-8
100926,-52
100934,-76
100941,-93
100949,-98
100957,-76
100965,-58
100973,-45
100980,-62
100988,-69
100996,377
101004,1349
101012,1835
101020,839
101027,-1079
101035,-2235
101043,-1774
101051,-547
101059,142
101066,125
101074,39
101082,62
101090,42
101098,30
101105,45
101113,61
101121,69
101129,69
101137,65
101145,53
101152,52
101160,89
101168,136
101176,140
101184,89
101191,47
101199,33
101207,18
101215,-21
101223,-53
101230,-59
101238,-90
101246,-178
101254,-263
101262,-292
101270,-280
101277,-274
101285,-292
101293,-298
101301,-275
101309,-230
101316,-179
101324,-126
101332,-81
101340,-58
101348,-46
101355,-40
101363,-50
101371,-65
101379,-74
101387,-69
101395,-49
101402,-26
101410,-23
101418,-34
101426,-43
101434,-43
101441,-47
101449,-56
101457,-64
101465,-53
101473,-26
101480,-5
101488,-17
101496,-53
101504,-84
101512,-84
101520,-70
101527,-45
101535,-7
101543,-6
101551,-51
101559,-178
101566,-112
101574,653
101582,1759
101590,1857
101598,333
101605,-1624
101613,-2294
101621,-1423
101629,-238
101637,211
101645,140
101652,92
101660,99
101668,80
101676,74
101684,62
101691,54
101699,65
101707,84
101715,95
101723,109
101730,114
101738,120
101746,119
101754,110
101762,97
101770,71
101777,34
101785,-7
101793,-42
101801,-72
101809,-103
101816,-153
101824,-213
101832,-261
101840,-281
101848,-273
101855,-262
101863,-254
101871,-238
101879,-210
101887,-167
101895,-134
101902,-107
101910,-81
101918,-63
101926,-67
101934,-78
101941,-83
101949,-71
101957,-67
101965,-67
101973,-67
101980,-66
101988,-67
101996,-76
102004,-87
102012,-87
102020,-82
102027,-54
102035,-16
102043,-9
102051,-46
102059,-94
102066,-112
102074,-91
102082,-82
102090,-68
102098,-32
102105,-19
102113,-49
102121,-144
102129,-99
102137,561
102145,1594
102152,1757
102160,386
102168,-1499
102176,-2225
102184,-1431
102191,-267
102199,198
102207,110
102215,51
102223,67
102230,42
102238,29
102246,28
102254,35
102262,55
102270,62
102277,62
102285,64
102293,73
102301,86
102309,96
102316,95
102324,83
102332,51
102340,-1
102348,-47
102355,-75
102363,-78
102371,-88
102379,-124
102387,-179
102395,-226
102402,-257
102410,-266
102418,-262
102426,-242
102434,-217
102441,-185
102449,-159
102457,-142
102465,-123
102473,-95
102480,-74
102488,-63
102496,-64
102504,-60
102512,-55
102520,-54
102527,-66
102535,-80
102543,-67
102551,-33
102559,-20
102566,-54
102574,-75
102582,-61
102590,-71
102598,-69
102605,17
102613,81
102621,-16
102629,-217
102637,-287
102645,-148
102652,2
102660,3
102668,-48
102676,-50
102684,-42
102691,-79
102699,-105
102707,274
102715,1207
102723,1816
102730,1047
102738,-794
102746,-2114
102754,-1861
102762,-674
102770,136
102777,208
102785,98
102793,71
102801,63
102809,70
102816,56
102824,55
102832,86
102840,73
102848,67
102855,136
102863,179
102871,118
102879,20
102887,28
102895,155
102902,239
102910,124
102918,-88
102926,-190
102934,-187
102941,-166
102949,-153
102957,-196
102965,-289
102973,-373
102980,-407
102988,-334
102996,-175
103004,-83
103012,-120
103020,-169
103027,-121
103035,-59
103043,-66
103051,-85
103059,-88
103066,-94
103074,-110
103082,-84
103090,0
103098,11
103105,-78
103113,-104
103121,1
103129,106
103137,65
103145,-66
103152,-157
103160,-159
103168,-114
103176,-74
103184,-27
103191,12
103199,7
103207,-22
103215,-28
103223,-50
103230,-95
103238,101
103246,852
103254,1593
103262,1190
103270,-512
103277,-2107
103285,-2188
103293,-1000
103301,102
103309,419
103316,379
103324,392
103332,279
103340,144
103348,211
103355,328
103363,257
103371,-53
103379,-260
103387,-95
103395,170
103402,250
103410,249
103418,333
103426,364
103434,228
103441,36
103449,-71
103457,-36
103465,-22
103473,-165
103480,-316
103488,-412
103496,-465
103504,-460
103512,-434
103520,-404
103527,-380
103535,-349
103543,-303
103551,-240
103559,-171
103566,-142
103574,-155
103582,-144
103590,-109
103598,-124
103605,-193
103613,-260
103621,-243
103629,-165
103637,-99
103645,-62
103652,-68
103660,-197
103668,-399
103676,-467
103684,-332
103691,-131
103699,-29
103707,-76
103715,-145
103723,-111
103730,-61
103738,-64
103746,-117
103754,-171
103762,160
103770,1185
103777,2137
103785,1704
103793,-193
103801,-2018
103809,-2310
103816,-1259
103824,-218
103832,91
103840,93
103848,191
103855,265
103863,201
103871,77
103879,-3
103887,-6
103895,61
103902,150
103910,223
103918,227
103926,150
103934,92
103941,115
103949,164
103957,161
103965,101
103973,18
103980,-65
103988,-122
103996,-145
104004,-150
104012,-170
104020,-226
104027,-291
104035,-307
104043,-278
104051,-242
104059,-217
104066,-196
104074,-167
104082,-125
104090,-80
104098,-47
104105,-29
104113,-28
104121,-38
104129,-56
104137,-75
104145,-80
104152,-66
104160,-54
104168,-45
104176,-47
104184,-65
104191,-93
104199,-114
104207,-96
104215,-57
104223,-45
104230,-42
104238,-21
104246,-19
104254,-79
104262,-209
104270,-16
104277,1004
104285,2235
104293,2141
104301,254
104309,-1925
104316,-2568
104324,-1570
104332,-343
104340,107
104348,71
104355,63
104363,78
104371,72
104379,86
104387,98
104395,89
104402,86
104410,97
104418,131
104426,155
104434,168
104441,183
104449,199
104457,183
104465,138
104473,76
104480,23
104488,-32
104496,-84
104504,-122
104512,-140
104520,-158
104527,-192
104535,-235
104543,-262
104551,-265
104559,-250
104566,-216
104574,-172
104582,-128
104590,-103
104598,-96
104605,-90
104613,-75
104621,-64
104629,-64
104637,-75
104645,-83
104652,-92
104660,-96
104668,-90
104676,-70
104684,-37
104691,-14
104699,-25
104707,-62
104715,-104
104723,-114
104730,-96
104738,-74
104746,-57
104754,-18
104762,-10
104770,-57
104777,-155
104785,-159
104793,471
104801,1741
104809,2387
104816,1240
104824,-1037
104832,-2498
104840,-2131
104848,-850
104855,-70
104863,-23
104871,-68
104879,-7
104887,19
104895,31
104902,47
104910,50
104918,57
104926,74
104934,93
104941,119
104949,139
104957,155
104965,169
104973,176
104980,152
104988,102
104996,30
105004,-43
105012,-97
105020,-123
105027,-130
105035,-133
105043,-154
105051,-198
105059,-243
105066,-265
105074,-258
105082,-232
105090,-203
105098,-173
105105,-151
105113,-136
105121,-128
105129,-117
105137,-104
105145,-95
105152,-89
105160,-90
105168,-85
105176,-81
105184,-77
105191,-81
105199,-72
105207,-43
105215,-14
105223,-18
105230,-61
105238,-106
105246,-121
105254,-109
105262,-91
105270,-66
105277,-26
105285,-23
105293,-71
105301,-147
105309,-121
105316,471
105324,1650
105332,2242
105340,1146
105348,-1021
105355,-2403
105363,-2029
105371,-785
105379,-42
105387,-13
105395,-61
105402,3
105410,20
105418,24
105426,49
105434,73
105441,86
105449,82
105457,83
105465,101
105473,131
105480,153
105488,165
105496,153
105504,116
105512,72
105520,17
105527,-42
105535,-91
105543,-113
105551,-115
105559,-118
105566,-141
105574,-183
105582,-213
105590,-233
105598,-247
105605,-250
105613,-243
105621,-212
105629,-171
105637,-144
105645,-126
105652,-114
105660,-100
105668,-93
105676,-90
105684,-82
105691,-73
105699,-68
105707,-67
105715,-72
105723,-78
105730,-79
105738,-63
105746,-28
105754,-12
105762,-32
105770,-76
105777,-109
105785,-109
105793,-89
105801,-75
105809,-63
105816,-32
105824,-32
105832,-69
105840,-167
105848,-135
105855,573
105863,1795
105871,2185
105879,815
105887,-1352
105895,-2435
105902,-1795
105910,-567
105918,11
105926,-25
105934,-57
105941,-5
105949,3
105957,11
105965,32
105973,52
105980,64
105988,70
105996,77
106004,95
106012,111
106020,124
106027,120
106035,104
106043,73
106051,22
106059,-37
106066,-83
106074,-105
106082,-100
106090,-91
106098,-98
106105,-123
106113,-149
106121,-172
106129,-197
106137,-222
106145,-230
106152,-212
106160,-192
106168,-182
106176,-169
106184,-145
106191,-120
106199,-106
106207,-103
106215,-96
106223,-86
106230,-76
106238,-71
106246,-71
106254,-71
106262,-80
106270,-91
106277,-88
106285,-61
106293,-18
106301,-3
106309,-32
106316,-77
106324,-99
106332,-94
106340,-75
106348,-77
106355,-60
106363,-24
106371,-16
106379,-46
106387,-174
106395,-160
106402,568
106410,1775
106418,2101
106426,674
106434,-1459
106441,-2402
106449,-1653
106457,-435
106465,39
106473,-61
106480,-100
106488,-11
106496,51
106504,72
106512,78
106520,93
106527,116
106535,136
106543,122
106551,105
106559,123
106566,146
106574,136
106582,84
106590,26
106598,0
106605,5
106613,-9
106621,-54
106629,-102
106637,-123
106645,-127
106652,-139
106660,-171
106668,-207
106676,-223
106684,-206
106691,-185
106699,-214
106707,-263
106715,-258
106723,-175
106730,-78
106738,-33
106746,-44
106754,-46
106762,-25
106770,-21
106777,-49
106785,-81
106793,-104
106801,-76
106809,-17
106816,-1
106824,-39
106832,-64
106840,-32
106848,26
106855,37
106863,-38
106871,-152
106879,-208
106887,-168
106895,-77
106902,33
106910,108
106918,71
106926,-33
106934,-162
106941,-183
106949,415
106957,1611
106965,2217
106973,1118
106980,-1086
106988,-2510
106996,-2131
107004,-813
107012,21
107020,123
107027,71
107035,67
107043,41
107051,34
107059,48
107066,83
107074,119
107082,133
107090,124
107098,115
107105,128
107113,149
107121,174
107129,182
107137,175
107145,128
107152,38
107160,-45
107168,-81
107176,-76
107184,-89
107191,-145
107199,-223
107207,-298
107215,-352
107223,-363
107230,-337
107238,-294
107246,-259
107254,-222
107262,-163
107270,-96
107277,-64
107285,-67
107293,-71
107301,-60
107309,-52
107316,-60
107324,-62
107332,-47
107340,-25
107348,-19
107355,-29
107363,-50
107371,-72
107379,-99
107387,-123
107395,-122
107402,-108
107410,-113
107418,-99
107426,-56
107434,-50
107441,-142
107449,-332
107457,-158
107465,904
107473,2174
107480,2089
107488,215
107496,-1926
107504,-2542
107512,-1569
107520,-395
107527,25
107535,-9
107543,-10
107551,4
107559,1
107566,14
107574,27
107582,49
107590,63
107598,63
107605,66
107613,85
107621,123
107629,142
107637,119
107645,68
107652,5
107660,-58
107668,-114
107676,-161
107684,-189
107691,-199
107699,-198
107707,-199
107715,-213
107723,-230
107730,-237
107738,-236
107746,-235
107754,-234
107762,-216
107770,-183
107777,-154
107785,-141
107793,-134
107801,-118
107809,-99
107816,-90
107824,-98
107832,-109
107840,-114
107848,-112
107855,-111
107863,-93
107871,-60
107879,-37
107887,-41
107895,-72
107902,-107
107910,-120
107918,-109
107926,-86
107934,-73
107941,-47
107949,-22
107957,-28
107965,-90
107973,-218
107980,19
107988,1078
107996,2211
108004,1938
108012,6
108020,-1980
108027,-2386
108035,-1353
108043,-297
108051,-6
108059,-52
108066,-20
108074,21
108082,35
108090,60
108098,74
108105,85
108113,95
108121,113
108129,134
108137,150
108145,161
108152,164
108160,154
108168,134
108176,81
108184,11
108191,-59
108199,-106
108207,-120
108215,-105
108223,-92
108230,-100
108238,-127
108246,-156
108254,-190
108262,-209
108270,-206
108277,-177
108285,-148
108293,-130
108301,-121
108309,-107
108316,-95
108324,-87
108332,-79
108340,-80
108348,-92
108355,-107
108363,-103
108371,-75
108379,-41
108387,-19
108395,-11
108402,-25
108410,-49
108418,-81
108426,-92
108434,-75
108441,-52
108449,-53
108457,-39
108465,-2
108473,8
108480,-37
108488,-157
108496,6
108504,945
108512,2088
108520,1997
108527,231
108535,-1795
108543,-2373
108551,-1440
108559,-346
108566,5
108574,-44
108582,-4
108590,42
108598,35
108605,49
108613,68
108621,84
108629,92
108637,106
108645,136
108652,160
108660,162
108668,152
108676,139
108684,121
108691,77
108699,12
108707,-61
108715,-110
108723,-127
108730,-116
108738,-105
108746,-104
108754,-125
108762,-169
108770,-204
108777,-223
108785,-217
108793,-199
108801,-176
108809,-151
108816,-133
108824,-124
108832,-112
108840,-103
108848,-87
108855,-77
108863,-77
108871,-81
108879,-92
108887,-88
108895,-62
108902,-15
108910,4
108918,-34
108926,-89
108934,-115
108941,-110
108949,-86
108957,-79
108965,-64
108973,-22
108980,-8
108988,-42
108996,-147
109004,-171
109012,423
109020,1613
109027,2184
109035,1070
109043,-1041
109051,-2310
109059,-1893
109066,-721
109074,-79
109082,-70
109090,-106
109098,-44
109105,-16
109113,5
109121,32
109129,55
109137,80
109145,102
109152,116
109160,118
109168,127
109176,141
109184,146
109191,130
109199,85
109207,27
109215,-30
109223,-83
109230,-111
109238,-111
109246,-101
109254,-111
109262,-140
109270,-171
109277,-189
109285,-201
109293,-214
109301,-219
109309,-202
109316,-175
109324,-155
109332,-142
109340,-140
109348,-134
109355,-119
109363,-92
109371,-73
109379,-71
109387,-88
109395,-100
109402,-88
109410,-51
109418,-23
109426,-25
109434,-62
109441,-101
109449,-125
109457,-121
109465,-101
109473,-83
109480,-50
109488,-24
109496,-49
109504,-100
109512,-177
109520,37
109527,908
109535,1823
109543,1533
109551,-134
109559,-1789
109566,-2041
109574,-1078
109582,-172
109590,17
109598,-71
109605,-34
109613,14
109621,19
109629,36
109637,44
109645,54
109652,78
109660,101
109668,114
109676,100
109684,90
109691,92
109699,92
109707,64
109715,12
109723,-39
109730,-75
109738,-92
109746,-83
109754,-65
109762,-54
109770,-74
109777,-121
109785,-165
109793,-192
109801,-205
109809,-210
109816,-212
109824,-193
109832,-163
109840,-144
109848,-140
109855,-139
109863,-116
109871,-84
109879,-69
109887,-68
109895,-80
109902,-87
109910,-84
109918,-62
109926,-25
109934,-2
109941,-16
109949,-56
109957,-88
109965,-96
109973,-84
109980,-74
109988,-64
109996,-33
110004,-29
110012,-64
110020,-135
110027,-111
110035,474
110043,1514
110051,1870
110059,708
110066,-1201
110074,-2174
110082,-1591
110090,-429
110098,145
110105,114
110113,60
110121,83
110129,72
110137,68
110145,81
110152,93
110160,90
110168,78
110176,78
110184,91
110191,97
110199,93
110207,81
110215,61
110223,27
110230,-22
110238,-63
110246,-70
110254,-69
110262,-72
110270,-95
110277,-117
110285,-141
110293,-175
110301,-224
110309,-265
110316,-270
110324,-250
110332,-221
110340,-211
110348,-206
110355,-187
110363,-156
110371,-124
110379,-100
110387,-97
110395,-98
110402,-113
110410,-120
110418,-109
110426,-80
110434,-57
110441,-51
110449,-76
110457,-109
110465,-130
110473,-124
110480,-118
110488,-130
110496,-120
110504,-92
110512,-79
110520,-105
110527,-206
110535,0
110543,927
110551,1922
110559,1652
110566,-107
110574,-1867
110582,-2138
110590,-1095
110598,-102
110605,114
110613,5
110621,8
110629,29
110637,29
110645,43
110652,45
110660,52
110668,67
110676,89
110684,100
110691,108
110699,113
110707,118
110715,113
110723,99
110730,75
110738,56
110746,37
110754,6
110762,-24
110770,-47
110777,-66
110785,-100
110793,-151
110801,-206
110809,-247
110816,-264
110824,-273
110832,-271
110840,-248
110848,-221
110855,-197
110863,-181
110871,-161
110879,-141
110887,-118
110895,-101
110902,-106
110910,-122
110918,-113
110926,-67
110934,-13
110941,-1
110949,-43
110957,-93
110965,-114
110973,-102
110980,-78
110988,-65
110996,-41
111004,-13
111012,-20
111020,-74
111027,-203
111035,-71
111043,756
111051,1754
111059,1637
111066,76
111074,-1633
111082,-2013
111090,-1115
111098,-167
111105,75
111113,-10
111121,8
111129,48
111137,43
111145,42
111152,45
111160,52
111168,67
111176,79
111184,94
111191,109
111199,116
111207,112
111215,96
111223,75
111230,50
111238,27
111246,13
111254,0
111262,-7
111270,-17
111277,-43
111285,-84
111293,-137
111301,-181
111309,-210
111316,-227
111324,-234
111332,-234
111340,-228
111348,-212
111355,-176
111363,-135
111371,-113
111379,-111
111387,-105
111395,-96
111402,-88
111410,-83
111418,-63
111426,-28
111434,-1
111441,-15
111449,-63
111457,-112
111465,-132
111473,-115
111480,-85
111488,-76
111496,-45
111504,-20
111512,-32
111520,-111
111527,-224
111535,75
111543,1090
111551,1965
111559,1431
111566,-418
111574,-1964
111582,-1959
111590,-867
111598,-22
111605,79
111613,-16
111621,15
111629,29
111637,27
111645,40
111652,51
111660,59
111668,72
111676,88
111684,101
111691,106
111699,101
111707,98
111715,84
111723,49
111730,15
111738,6
111746,6
111754,-7
111762,-31
111770,-52
111777,-78
111785,-121
111793,-184
111801,-247
111809,-282
111816,-280
111824,-272
111832,-270
111840,-266
111848,-236
111855,-187
111863,-142
111871,-119
111879,-105
111887,-90
111895,-86
111902,-96
111910,-105
111918,-98
111926,-65
111934,-29
111941,-23
111949,-58
111957,-106
111965,-130
111973,-111
111980,-92
111988,-92
111996,-67
112004,-46
112012,-58
112020,-114
112027,-185
112035,153
112043,1167
112051,1977
112059,1357
112066,-533
112074,-2062
112082,-2002
112090,-865
112098,-16
112105,74
112113,-21
112121,22
112129,49
112137,42
112145,46
112152,51
112160,58
112168,58
112176,60
112184,87
112191,121
112199,134
112207,114
112215,84
112223,62
112230,36
112238,4
112246,-29
112254,-46
112262,-52
112270,-71
112277,-110
112285,-157
112293,-206
112301,-240
112309,-253
112316,-249
112324,-235
112332,-215
112340,-202
112348,-184
112355,-163
112363,-135
112371,-109
112379,-92
112387,-82
112395,-80
112402,-93
112410,-97
112418,-78
112426,-35
112434,-4
112441,-25
112449,-84
112457,-132
112465,-135
112473,-103
112480,-85
112488,-78
112496,-45
112504,-17
112512,-19
112520,-96
112527,-175
112535,224
112543,1207
112551,1768
112559,893
112566,-909
112574,-2021
112582,-1613
112590,-486
112598,138
112605,110
112613,23
112621,43
112629,28
112637,18
112645,46
112652,87
112660,104
112668,83
112676,57
112684,73
112691,118
112699,154
112707,143
112715,101
112723,63
112730,42
112738,26
112746,13
112754,-8
112762,-38
112770,-86
112777,-137
112785,-184
112793,-215
112801,-249
112809,-283
112816,-296
112824,-280
112832,-246
112840,-214
112848,-185
112855,-155
112863,-131
112871,-103
112879,-71
112887,-49
112895,-32
112902,-25
112910,-13
112918,18
112926,45
112934,36
112941,-8
112949,-63
112957,-97
112965,-98
112973,-74
112980,-67
112988,-56
112996,-36
113004,-49
113012,-124
113020,-272
113027,-171
113035,634
113043,1599
113051,1470
113059,-32
113066,-1606
113074,-1859
113082,-921
113090,-11
113098,177
113105,49
113113,35
113121,34
113129,8
113137,24
113145,54
113152,62
113160,51
113168,55
113176,80
113184,107
113191,109
113199,85
113207,63
113215,57
113223,55
113230,54
113238,49
113246,22
113254,-9
113262,-40
113270,-68
113277,-121
113285,-197
113293,-271
113301,-305
113309,-301
113316,-293
113324,-286
113332,-263
113340,-226
113348,-189
113355,-156
113363,-126
113371,-101
113379,-91
113387,-90
113395,-78
113402,-54
113410,-36
113418,-20
113426,-27
113434,-62
113441,-106
113449,-127
113457,-101
113465,-77
113473,-81
113480,-65
113488,-39
113496,-48
113504,-147
113512,-313
113520,-59
113527,922
113535,1793
113543,1323
113551,-399
113559,-1830
113566,-1789
113574,-743
113582,50
113590,149
113598,54
113605,54
113613,51
113621,39
113629,50
113637,59
113645,68
113652,78
113660,91
113668,104
113676,114
113684,115
113691,111
113699,96
113707,75
113715,46
113723,14
113730,-18
113738,-41
113746,-63
113754,-101
113762,-150
113770,-196
113777,-233
113785,-251
113793,-262
113801,-272
113809,-283
113816,-282
113824,-254
113832,-215
113840,-179
113848,-153
113855,-139
113863,-128
113871,-120
113879,-115
113887,-105
113895,-81
113902,-42
113910,4
113918,19
113926,-14
113934,-74
113941,-106
113949,-95
113957,-68
113965,-64
113973,-42
113980,-10
113988,-16
113996,-93
114004,-253
114012,-91
114020,831
114027,1831
114035,1576
114043,-100
114051,-1735
114059,-1944
114066,-976
114074,-114
114082,28
114090,-58
114098,-18
114105,12
114113,9
114121,28
114129,50
114137,72
114145,83
114152,81
114160,87
114168,102
114176,109
114184,102
114191,81
114199,55
114207,25
114215,-4
114223,-18
114230,-14
114238,-9
114246,-33
114254,-85
114262,-142
114270,-182
114277,-212
114285,-230
114293,-235
114301,-225
114309,-212
114316,-192
114324,-170
114332,-149
114340,-134
114348,-127
114355,-122
114363,-121
114371,-119
114379,-102
114387,-69
114395,-28
114402,1
114410,-3
114418,-38
114426,-89
114434,-116
114441,-105
114449,-76
114457,-74
114465,-64
114473,-38
114480,-32
114488,-93
114496,-242
114504,-127
114512,719
114520,1729
114527,1602
114535,35
114543,-1624
114551,-1937
114559,-995
114566,-54
114574,159
114582,55
114590,61
114598,84
114605,67
114613,62
114621,67
114629,87
114637,101
114645,108
114652,119
114660,133
114668,127
114676,106
114684,79
114691,51
114699,16
114707,-33
114715,-70
114723,-73
114730,-56
114738,-61
114746,-101
114754,-167
114762,-227
114770,-255
114777,-256
114785,-246
114793,-226
114801,-196
114809,-167
114816,-147
114824,-131
114832,-119
114840,-103
114848,-87
114855,-75
114863,-71
114871,-79
114879,-90
114887,-77
114895,-48
114902,-20
114910,-22
114918,-60
114926,-105
114934,-133
114941,-128
114949,-104
114957,-102
114965,-86
114973,-54
114980,-51
114988,-122
114996,-303
115004,-214
115012,670
115020,1798
115027,1761
115035,144
115043,-1666
115051,-2094
115059,-1161
115066,-163
115074,95
115082,4
115090,8
115098,30
115105,27
115113,42
115121,56
115129,65
115137,72
115145,87
115152,100
115160,116
115168,129
115176,136
115184,121
115191,88
115199,35
115207,-30
115215,-85
115223,-97
115230,-87
115238,-73
115246,-95
115254,-146
115262,-198
115270,-222
115277,-220
115285,-211
115293,-197
115301,-179
115309,-160
115316,-141
115324,-125
115332,-107
115340,-94
115348,-88
115355,-93
115363,-93
115371,-89
115379,-86
115387,-92
115395,-97
115402,-91
115410,-65
115418,-26
115426,-3
115434,-20
115441,-67
115449,-112
115457,-120
115465,-97
115473,-80
115480,-62
115488,-32
115496,-29
115504,-60
115512,-158
115520,-133
115527,507
115535,1516
115543,1694
115551,389
115559,-1393
115566,-2062
115574,-1302
115582,-230
115590,147
115598,42
115605,8
115613,45
115621,44
115629,45
115637,50
115645,51
115652,64
115660,79
115668,94
115676,105
115684,110
115691,113
115699,110
115707,92
115715,51
115723,-3
115730,-46
115738,-72
115746,-76
115754,-69
115762,-75
115770,-104
115777,-149
115785,-193
115793,-218
115801,-223
115809,-218
115816,-204
115824,-184
115832,-153
115840,-122
115848,-100
115855,-94
115863,-102
115871,-106
115879,-104
115887,-93
115895,-78
115902,-80
115910,-76
115918,-69
115926,-64
115934,-61
115941,-57
115949,-71
115957,-97
115965,-108
115973,-71
115980,-3
115988,49
115996,31
116004,-32
116012,-95
116020,-125
116027,-123
116035,-101
116043,-84
116051,-49
116059,-13
116066,-28
116074,-56
116082,-109
116090,-61
116098,554
116105,1560
116113,1760
116121,436
116129,-1440
116137,-2204
116145,-1435
116152,-276
116160,160
116168,60
116176,31
116184,78
116191,64
116199,53
116207,54
116215,70
116223,84
116230,78
116238,75
116246,97
116254,128
116262,141
116270,134
116277,102
116285,52
116293,2
116301,-50
116309,-95
116316,-113
116324,-104
116332,-107
116340,-148
116348,-214
116355,-265
116363,-286
116371,-287
116379,-278
116387,-251
116395,-208
116402,-167
116410,-139
116418,-120
116426,-102
116434,-83
116441,-70
116449,-70
116457,-75
116465,-82
116473,-83
116480,-85
116488,-84
116496,-91
116504,-100
116512,-98
116520,-89
116527,-79
116535,-97
116543,-115
116551,-103
116559,-58
116566,-10
116574,17
116582,-2
116590,-61
116598,-125
116605,-158
116613,-146
116621,-115
116629,-101
116637,-107
116645,-71
116652,-51
116660,-60
116668,-101
116676,-172
116684,147
116691,1127
116699,1905
116707,1267
116715,-605
116723,-2060
116730,-1920
116738,-761
116746,48
116754,91
116762,-22
116770,0
116777,15
116785,15
116793,33
116801,44
116809,53
116816,54
116824,62
116832,74
116840,90
116848,107
116855,125
116863,121
116871,95
116879,45
116887,-15
116895,-68
116902,-105
116910,-122
116918,-121
116926,-123
116934,-147
116941,-189
116949,-232
116957,-252
116965,-240
116973,-213
116980,-179
116988,-156
116996,-138
117004,-114
117012,-97
117020,-82
117027,-68
117035,-56
117043,-57
117051,-70
117059,-80
117066,-79
117074,-73
117082,-68
117090,-67
117098,-72
117105,-77
117113,-77
117121,-71
117129,-66
117137,-70
117145,-72
117152,-67
117160,-74
117168,-89
117176,-81
117184,-36
117191,22
117199,46
117207,10
117215,-62
117223,-121
117230,-139
117238,-103
117246,-52
117254,-34
117262,-32
117270,-34
117277,-41
117285,-38
117293,-102
117301,5
117309,748
117316,1670
117324,1533
117332,-34
117340,-1737
117348,-2062
117355,-1047
117363,-17
117371,221
117379,88
117387,81
117395,97
117402,65
117410,46
117418,52
117426,71
117434,78
117441,87
117449,97
117457,100
117465,95
117473,107
117480,124
117488,126
117496,93
117504,38
117512,-14
117520,-47
117527,-64
117535,-76
117543,-92
117551,-133
117559,-195
117566,-255
117574,-291
117582,-303
117590,-300
117598,-280
117605,-240
117613,-201
117621,-177
117629,-156
117637,-110
117645,-53
117652,-37
117660,-72
117668,-101
117676,-86
117684,-54
117691,-42
117699,-53
117707,-75
117715,-92
117723,-96
117730,-94
117738,-90
117746,-83
117754,-80
117762,-73
117770,-66
117777,-74
117785,-82
117793,-67
117801,-33
117809,-4
117816,2
117824,-29
117832,-72
117840,-113
117848,-137
117855,-126
117863,-84
117871,-66
117879,-36
117887,-15
117895,-24
117902,-70
117910,-158
117918,63
117926,964
117934,1859
117941,1478
117949,-291
117957,-1967
117965,-2147
117973,-1067
117980,-58
117988,184
117996,102
118004,97
118012,88
118020,57
118027,52
118035,51
118043,56
118051,66
118059,75
118066,90
118074,108
118082,126
118090,139
118098,148
118105,130
118113,88
118121,24
118129,-40
118137,-99
118145,-124
118152,-135
118160,-157
118168,-199
118176,-252
118184,-283
118191,-285
118199,-269
118207,-249
118215,-226
118223,-186
118230,-147
118238,-117
118246,-102
118254,-101
118262,-97
118270,-89
118277,-90
118285,-99
118293,-102
118301,-106
118309,-104
118316,-100
118324,-101
118332,-105
118340,-115
118348,-120
118355,-127
118363,-131
118371,-137
118379,-117
118387,-69
118395,-15
118402,16
118410,4
118418,-43
118426,-86
118434,-95
118441,-63
118449,-37
118457,-9
118465,-5
118473,-33
118480,-74
118488,-163
118496,-30
118504,779
118512,1763
118520,1640
118527,35
118535,-1735
118543,-2138
118551,-1196
118559,-191
118566,66
118574,-38
118582,-34
118590,-1
118598,5
118605,25
118613,38
118621,49
118629,62
118637,81
118645,99
118652,120
118660,140
118668,154
118676,153
118684,135
118691,92
118699,26
118707,-51
118715,-122
118723,-152
118730,-147
118738,-131
118746,-142
118754,-188
118762,-237
118770,-253
118777,-240
118785,-215
118793,-184
118801,-159
118809,-140
118816,-119
118824,-100
118832,-76
118840,-56
118848,-51
118855,-58
118863,-71
118871,-75
118879,-64
118887,-44
118895,-39
118902,-55
118910,-67
118918,-60
118926,-44
118934,-45
118941,-62
118949,-84
118957,-85
118965,-71
118973,-28
118980,8
118988,2
118996,-48
119004,-94
119012,-110
119020,-92
119027,-74
119035,-71
119043,-51
119051,-28
119059,-22
119066,-82
119074,-175
119082,193
119090,1255
119098,2019
119105,1254
119113,-717
119121,-2150
119129,-1931
119137,-743
119145,48
119152,103
119160,21
119168,51
119176,56
119184,49
119191,62
119199,72
119207,78
119215,77
119223,83
119230,102
119238,133
119246,155
119254,177
119262,177
119270,145
119277,71
119285,-18
119293,-89
119301,-124
119309,-128
119316,-129
119324,-153
119332,-203
119340,-253
119348,-293
119355,-307
119363,-293
119371,-267
119379,-234
119387,-193
119395,-154
119402,-122
119410,-104
119418,-93
119426,-88
119434,-87
119441,-85
119449,-79
119457,-78
119465,-82
119473,-85
119480,-86
119488,-82
119496,-83
119504,-85
119512,-78
119520,-67
119527,-59
119535,-68
119543,-85
119551,-92
119559,-71
119566,-30
119574,-1
119582,-18
119590,-68
119598,-112
119605,-117
119613,-89
119621,-73
119629,-57
119637,-25
119645,-21
119652,-59
119660,-170
119668,-171
119676,475
119684,1621
119691,1983
119699,685
119707,-1336
119715,-2286
119723,-1598
119730,-397
119738,125
119746,46
119754,-16
119762,17
119770,21
119777,23
119785,34
119793,42
119801,52
119809,58
119816,74
119824,100
119832,130
119840,153
119848,161
119855,152
119863,120
119871,59
119879,-18
119887,-91
119895,-141
119902,-152
119910,-154
119918,-171
119926,-210
119934,-254
119941,-274
119949,-268
119957,-242
119965,-220
119973,-193
119980,-175
119988,-146
119996,-118
120004,-95
120012,-79
120020,-67
120027,-60
120035,-58
120043,-58
120051,-59
120059,-59
120066,-64
120074,-72
120082,-75
120090,-68
120098,-64
120105,-74
120113,-83
120121,-79
120129,-54
120137,-20
120145,-1
120152,-17
120160,-63
120168,-104
120176,-117
120184,-98
120191,-78
120199,-53
120207,-20
120215,-27
120223,-50
120230,-111
120238,-72
120246,556
120254,1574
120262,1771
120270,434
120277,-1447
120285,-2196
120293,-1403
120301,-240
120309,200
120316,84
120324,32
120332,63
120340,56
120348,52
120355,56
120363,62
120371,71
120379,75
120387,89
120395,107
120402,122
120410,128
120418,125
120426,120
120434,92
120441,37
120449,-32
120457,-89
120465,-106
120473,-99
120480,-98
120488,-130
120496,-187
120504,-237
120512,-263
120520,-268
120527,-251
120535,-221
120543,-186
120551,-162
120559,-148
120566,-137
120574,-119
120582,-96
120590,-76
120598,-71
120605,-73
120613,-72
120621,-70
120629,-61
120637,-54
120645,-52
120652,-55
120660,-56
120668,-55
120676,-49
120684,-51
120691,-61
120699,-69
120707,-62
120715,-39
120723,-12
120730,7
120738,6
120746,-21
120754,-68
120762,-98
120770,-92
120777,-66
120785,-51
120793,-33
120801,-27
120809,-28
120816,-48
120824,-131
120832,76
120840,968
120848,1854
120855,1457
120863,-325
120871,-1968
120879,-2090
120887,-997
120895,-51
120902,131
120910,37
120918,48
120926,52
120934,44
120941,58
120949,61
120957,53
120965,53
120973,72
120980,104
120988,119
120996,120
121004,129
121012,123
121020,96
121027,45
121035,-9
121043,-45
121051,-60
121059,-65
121066,-83
121074,-127
121082,-186
121090,-243
121098,-273
121105,-279
121113,-271
121121,-268
121129,-262
121137,-238
121145,-204
121152,-166
121160,-140
121168,-123
121176,-108
121184,-97
121191,-91
121199,-89
121207,-99
121215,-111
121223,-110
121230,-95
121238,-81
