Timestamp,Count
358279,0
358287,0
358295,-1
358302,-2
358310,-3
358318,-4
358326,-9
358334,-9
358342,-9
358349,-15
358357,-8
358365,-16
358373,-19
358381,11
358388,-57
358396,-116
358404,58
358412,166
358420,-293
358427,-1268
358435,-2034
358443,-2038
358451,-1514
358459,-1061
358467,-873
358474,-685
358482,-473
358490,-355
358498,-249
358506,-145
358513,-82
358521,-36
358529,1
358537,39
358545,69
358552,78
358560,83
358568,79
358576,71
358584,77
358592,109
358599,137
358607,129
358615,94
358623,86
358631,121
358638,168
358646,181
358654,156
358662,114
358670,68
358677,41
358685,32
358693,35
358701,43
358709,55
358717,51
358724,69
358732,105
358740,98
358748,21
358756,-80
358763,239
358771,1357
358779,2440
358787,2024
358795,-19
358802,-2002
358810,-2346
358818,-1270
358826,-202
358834,100
358842,52
358849,87
358857,126
358865,129
358873,146
358881,149
358888,130
358896,120
358904,138
358912,187
358920,227
358927,242
358935,240
358943,239
358951,215
358959,149
358967,57
358974,-23
358982,-84
358990,-133
358998,-181
359006,-233
359013,-274
359021,-295
359029,-284
359037,-261
359045,-226
359052,-192
359060,-153
359068,-112
359076,-80
359084,-53
359092,-22
359099,-2
359107,4
359115,-2
359123,-7
359131,-15
359138,-23
359146,-23
359154,-20
359162,-24
359170,-38
359177,-55
359185,-59
359193,-46
359201,-41
359209,-66
359217,-92
359224,-77
359232,-24
359240,31
359248,47
359256,26
359263,-23
359271,-75
359279,-107
359287,-109
359295,-75
359302,-40
359310,-42
359318,-38
359326,-13
359334,-17
359342,-72
359349,-187
359357,-82
359365,787
359373,2091
359381,2382
359388,843
359396,-1401
359404,-2463
359412,-1826
359420,-665
359427,-138
359435,-132
359443,-97
359451,-18
359459,-3
359467,10
359474,40
359482,69
359490,83
359498,89
359506,105
359513,132
359521,158
359529,181
359537,190
359545,180
359552,137
359560,62
359568,-22
359576,-84
359584,-128
359592,-170
359599,-229
359607,-284
359615,-315
359623,-305
359631,-281
359638,-256
359646,-220
359654,-180
359662,-143
359670,-121
359677,-100
359685,-72
359693,-48
359701,-40
359709,-43
359717,-47
359724,-48
359732,-51
359740,-48
359748,-43
359756,-42
359763,-50
359771,-66
359779,-74
359787,-75
359795,-72
359802,-73
359810,-71
359818,-56
359826,-38
359834,-41
359842,-67
359849,-82
359857,-46
359865,18
359873,53
359881,43
359888,-5
359896,-62
359904,-109
359912,-126
359920,-104
359927,-59
359935,-42
359943,-56
359951,-51
359959,-50
359967,-72
359974,-144
359982,-179
359990,338
359998,1488
360006,2168
360013,1245
360021,-787
360029,-2174
360037,-1919
360045,-797
360052,-90
360060,-40
360068,-62
360076,15
360084,46
360092,43
360099,41
360107,43
360115,65
360123,98
360131,126
360138,131
360146,122
360154,120
360162,130
360170,136
360177,116
360185,64
360193,-7
360201,-63
360209,-90
360217,-98
360224,-124
360232,-172
360240,-234
360248,-270
360256,-271
360263,-236
360271,-203
360279,-162
360287,-123
360295,-97
360302,-91
360310,-81
360318,-67
360326,-51
360334,-51
360342,-48
360349,-33
360357,-24
360365,-47
360373,-90
360381,-103
360388,-84
360396,-69
360404,-66
360412,-69
360420,-70
360427,-66
360435,-55
360443,-43
360451,-43
360459,-48
360467,-54
360474,-61
360482,-66
360490,-65
360498,-57
360506,-44
360513,-39
360521,-49
360529,-49
360537,-28
360545,-1
360552,14
360560,5
360568,-24
360576,-65
360584,-98
360592,-118
360599,-116
360607,-97
360615,-84
360623,-97
360631,-81
360638,-45
360646,-43
360654,-121
360662,-255
360670,-7
360677,1093
360685,2308
360693,2121
360701,206
360709,-1875
360717,-2430
360724,-1498
360732,-435
360740,-78
360748,-87
360756,-39
360763,-9
360771,-1
360779,31
360787,60
360795,72
360802,84
360810,93
360818,111
360826,121
360834,141
360842,173
360849,187
360857,148
360865,67
360873,-20
360881,-90
360888,-151
360896,-187
360904,-209
360912,-221
360920,-246
360927,-275
360935,-286
360943,-276
360951,-265
360959,-245
360967,-197
360974,-139
360982,-91
360990,-65
360998,-52
361006,-56
361013,-62
361021,-69
361029,-72
361037,-70
361045,-69
361052,-66
361060,-63
361068,-64
361076,-73
361084,-78
361092,-78
361099,-69
361107,-68
361115,-74
361123,-79
361131,-74
361138,-74
361146,-83
361154,-93
361162,-69
361170,-24
361177,8
361185,1
361193,-45
361201,-96
361209,-129
361217,-134
361224,-114
361232,-88
361240,-74
361248,-71
361256,-55
361263,-37
361271,-62
361279,-150
361287,-282
361295,-37
361302,1046
361310,2257
361318,2094
361326,228
361334,-1819
361342,-2372
361349,-1457
361357,-434
361365,-120
361373,-148
361381,-94
361388,-30
361396,-7
361404,18
361412,29
361420,37
361427,53
361435,75
361443,103
361451,125
361459,142
361467,158
361474,166
361482,147
361490,95
361498,16
361506,-64
361513,-126
361521,-171
361529,-204
361537,-234
361545,-258
361552,-273
361560,-285
361568,-282
361576,-259
361584,-214
361592,-175
361599,-147
361607,-114
361615,-76
361623,-49
361631,-45
361638,-65
361646,-84
361654,-82
361662,-70
361670,-57
361677,-59
361685,-78
361693,-89
361701,-78
361709,-66
361717,-67
361724,-78
361732,-77
361740,-64
361748,-49
361756,-45
361763,-54
361771,-56
361779,-40
361787,-32
361795,-43
361802,-49
361810,-19
361818,31
361826,68
361834,48
361842,0
361849,-54
361857,-90
361865,-105
361873,-95
361881,-69
361888,-60
361896,-63
361904,-39
361912,-27
361920,-36
361927,-106
361935,-130
361943,389
361951,1479
361959,2057
361967,1096
361974,-844
361982,-2089
361990,-1776
361998,-696
362006,-57
362013,-27
362021,-55
362029,3
362037,22
362045,23
362052,33
362060,54
362068,79
362076,81
362084,75
362092,87
362099,127
362107,163
362115,177
362123,162
362131,129
362138,79
362146,6
362154,-71
362162,-122
362170,-151
362177,-186
362185,-241
362193,-298
362201,-313
362209,-292
362217,-266
362224,-249
362232,-233
362240,-199
362248,-141
362256,-87
362263,-70
362271,-82
362279,-92
362287,-82
362295,-73
362302,-78
362310,-93
362318,-85
362326,-64
362334,-47
362342,-58
362349,-81
362357,-88
362365,-83
362373,-67
362381,-52
362388,-40
362396,-41
362404,-73
362412,-107
362420,-95
362427,-60
362435,-47
362443,-51
362451,-34
362459,1
362467,22
362474,15
362482,-23
362490,-75
362498,-119
362506,-126
362513,-100
362521,-68
362529,-68
362537,-85
362545,-68
362552,-34
362560,-44
362568,-154
362576,-286
362584,118
362592,1377
362599,2458
362607,1863
362615,-317
362623,-2228
362631,-2380
362638,-1237
362646,-272
362654,-71
362662,-102
362670,-16
362677,37
362685,29
362693,17
362701,11
362709,24
362717,55
362724,88
362732,132
362740,159
362748,173
362756,174
362763,180
362771,159
362779,92
362787,-19
362795,-123
362802,-195
362810,-228
362818,-241
362826,-249
362834,-264
362842,-292
362849,-318
362857,-307
362865,-263
362873,-219
362881,-181
362888,-145
362896,-104
362904,-73
362912,-60
362920,-57
362927,-47
362935,-42
362943,-53
362951,-75
362959,-90
362967,-94
362974,-99
362982,-104
362990,-102
362998,-90
363006,-76
363013,-73
363021,-72
363029,-68
363037,-57
363045,-53
363052,-62
363060,-90
363068,-102
363076,-65
363084,0
363092,51
363099,39
363107,-19
363115,-81
363123,-102
363131,-97
363138,-73
363146,-61
363154,-65
363162,-44
363170,-15
363177,-32
363185,-100
363193,-174
363201,174
363209,1246
363217,2186
363224,1661
363232,-306
363240,-2061
363248,-2208
363256,-1116
363263,-174
363271,13
363279,-60
363287,-17
363295,26
363302,44
363310,70
363318,75
363326,68
363334,69
363342,90
363349,122
363357,149
363365,162
363373,176
363381,184
363388,157
363396,94
363404,22
363412,-43
363420,-105
363427,-165
363435,-224
363443,-266
363451,-293
363459,-302
363467,-298
363474,-286
363482,-261
363490,-217
363498,-162
363506,-104
363513,-60
363521,-43
363529,-41
363537,-41
363545,-37
363552,-35
363560,-39
363568,-43
363576,-47
363584,-52
363592,-66
363599,-75
363607,-82
363615,-86
363623,-93
363631,-82
363638,-65
363646,-62
363654,-68
363662,-71
363670,-63
363677,-37
363685,-11
363693,-3
363701,-11
363709,-34
363717,-54
363724,-59
363732,-64
363740,-92
363748,-114
363756,-100
363763,-67
363771,-61
363779,-42
363787,-27
363795,-54
363802,-138
363810,-208
363818,183
363826,1210
363834,1957
363842,1304
363849,-503
363857,-1931
363865,-1902
363873,-890
363881,-101
363888,23
363896,-37
363904,-2
363912,19
363920,19
363927,38
363935,79
363943,116
363951,96
363959,53
363967,76
363974,156
363982,190
363990,144
363998,95
364006,90
364013,58
364021,-14
364029,-66
364037,-88
364045,-124
364052,-188
364060,-247
364068,-257
364076,-264
364084,-317
364092,-343
364099,-295
364107,-212
364115,-137
364123,-117
364131,-125
364138,-106
364146,-80
364154,-72
364162,-72
364170,-49
364177,-27
364185,-68
364193,-127
364201,-134
364209,-85
364217,-50
364224,-70
364232,-95
364240,-101
364248,-106
364256,-98
364263,-54
364271,-2
364279,-11
364287,-55
364295,-48
364302,-15
364310,-15
364318,-56
364326,-89
364334,-81
364342,-72
364349,-67
364357,-65
364365,-56
364373,-24
364381,-11
364388,-49
364396,-215
364404,-273
364412,479
364420,1911
364427,2506
364435,1144
364443,-1212
364451,-2495
364459,-1945
364467,-690
364474,-58
364482,-52
364490,-50
364498,28
364506,51
364513,68
364521,87
364529,102
364537,100
364545,86
364552,85
364560,112
364568,140
364576,153
364584,159
364592,158
364599,127
364607,42
364615,-74
364623,-178
364631,-225
364638,-222
364646,-212
364654,-208
364662,-220
364670,-268
364677,-310
364685,-289
364693,-223
364701,-166
364709,-150
364717,-145
364724,-86
364732,0
364740,40
364748,5
364756,-44
364763,-64
364771,-59
364779,-57
364787,-71
364795,-90
364802,-79
364810,-49
364818,-52
364826,-93
364834,-97
364842,-46
364849,17
364857,9
364865,-47
364873,-77
364881,-52
364888,-27
364896,-23
364904,-18
364912,-3
364920,-33
364927,-122
364935,-176
364943,-139
364951,-88
364959,-74
364967,-46
364974,19
364982,42
364990,-31
364998,-152
365006,59
365013,957
365021,1910
365029,1709
365037,132
365045,-1560
365052,-2013
365060,-1263
365068,-399
365076,-115
365084,-79
365092,66
365099,149
365107,60
365115,-71
365123,-103
365131,-32
365138,81
365146,150
365154,125
365162,75
365170,105
365177,202
365185,241
365193,130
365201,-11
365209,-55
365217,-46
365224,-89
365232,-171
365240,-180
365248,-117
365256,-177
365263,-364
365271,-439
365279,-309
365287,-153
365295,-129
365302,-212
365310,-268
365318,-219
365326,-115
365334,-38
365342,-4
365349,-4
365357,-37
365365,-39
365373,-19
365381,-85
365388,-184
365396,-179
365404,-97
365412,-41
365420,-25
365427,-16
365435,-31
365443,-69
365451,-90
365459,-78
365467,-29
365474,11
365482,-27
365490,-92
365498,-99
365506,-72
365513,-61
365521,-77
365529,-84
365537,-63
365545,-43
365552,-42
365560,-66
365568,-84
365576,-153
365584,-197
365592,295
365599,1387
365607,1995
365615,1107
365623,-762
365631,-1992
365638,-1723
365646,-716
365654,-125
365662,-112
365670,-136
365677,-59
365685,-8
365693,12
365701,16
365709,28
365717,61
365724,86
365732,89
365740,82
365748,86
365756,118
365763,157
365771,149
365779,93
365787,23
365795,-31
365802,-66
365810,-107
365818,-159
365826,-209
365834,-251
365842,-269
365849,-273
365857,-265
365865,-242
365873,-219
365881,-190
365888,-156
365896,-129
365904,-106
365912,-78
365920,-56
365927,-55
365935,-73
365943,-82
365951,-65
365959,-56
365967,-75
365974,-106
365982,-107
365990,-80
365998,-64
366006,-71
366013,-79
366021,-93
366029,-107
366037,-116
366045,-103
366052,-71
366060,-36
366068,-1
366076,10
366084,-9
366092,-49
366099,-88
366107,-104
366115,-105
366123,-108
366131,-110
366138,-110
366146,-79
366154,-42
366162,-39
366170,-90
366177,-205
366185,-56
366193,838
366201,1964
366209,1967
366217,360
366224,-1579
366232,-2223
366240,-1452
366248,-475
366256,-142
366263,-160
366271,-94
366279,-9
366287,19
366295,30
366302,32
366310,39
366318,50
366326,63
366334,84
366342,103
366349,131
366357,156
366365,161
366373,134
366381,72
366388,-5
366396,-59
366404,-95
366412,-140
366420,-196
366427,-237
366435,-253
366443,-253
366451,-259
366459,-270
366467,-258
366474,-223
366482,-194
366490,-177
366498,-146
366506,-100
366513,-61
366521,-57
366529,-77
366537,-83
366545,-66
366552,-47
366560,-51
366568,-73
366576,-86
366584,-87
366592,-70
366599,-58
366607,-61
366615,-85
366623,-113
366631,-121
366638,-91
366646,-24
366654,36
366662,47
366670,0
366677,-60
366685,-99
366693,-104
366701,-85
366709,-69
366717,-57
366724,-45
366732,-6
366740,35
366748,20
366756,-58
366763,-191
366771,-23
366779,931
366787,2114
366795,2080
366802,342
366810,-1724
366818,-2381
366826,-1496
366834,-373
366842,35
366849,5
366857,21
366865,52
366873,51
366881,72
366888,97
366896,116
366904,126
366912,125
366920,130
366927,153
366935,177
366943,184
366951,163
366959,134
366967,97
366974,40
366982,-27
366990,-84
366998,-119
367006,-149
367013,-191
367021,-238
367029,-277
367037,-279
367045,-255
367052,-218
367060,-176
367068,-144
367076,-118
367084,-86
367092,-56
367099,-33
367107,-29
367115,-39
367123,-56
367131,-57
367138,-45
367146,-35
367154,-30
367162,-34
367170,-39
367177,-46
367185,-52
367193,-72
367201,-90
367209,-102
367217,-96
367224,-71
367232,-27
367240,17
367248,32
367256,4
367263,-54
367271,-109
367279,-130
367287,-123
367295,-95
367302,-69
367310,-63
367318,-55
367326,-31
367334,-16
367342,-43
367349,-139
367357,-82
367365,598
367373,1634
367381,1839
367388,571
367396,-1236
367404,-2038
367412,-1449
367420,-466
367427,-32
367435,-48
367443,-48
367451,-1
367459,6
367467,16
367474,27
367482,38
367490,57
367498,78
367506,95
367513,100
367521,107
367529,122
367537,134
367545,125
367552,89
367560,28
367568,-35
367576,-83
367584,-118
367592,-157
367599,-208
367607,-249
367615,-262
367623,-267
367631,-272
367638,-265
367646,-241
367654,-206
367662,-178
367670,-155
367677,-129
367685,-106
367693,-107
367701,-116
367709,-118
367717,-108
367724,-98
367732,-88
367740,-80
367748,-72
367756,-63
367763,-52
367771,-42
367779,-41
367787,-57
367795,-73
367802,-84
367810,-83
367818,-61
367826,-21
367834,12
367842,9
367849,-34
367857,-91
367865,-117
367873,-119
367881,-102
367888,-77
367896,-65
367904,-39
367912,2
367920,-7
367927,-75
367935,-219
367943,-107
367951,789
367959,2029
367967,2165
367974,552
367982,-1575
367990,-2404
367998,-1626
368006,-490
368013,-43
368021,-75
368029,-51
368037,9
368045,11
368052,20
368060,48
368068,84
368076,99
368084,95
368092,104
368099,139
368107,172
368115,189
368123,183
368131,158
368138,117
368146,42
368154,-39
368162,-112
368170,-167
368177,-215
368185,-257
368193,-291
368201,-319
368209,-337
368217,-321
368224,-280
368232,-232
368240,-184
368248,-148
368256,-122
368263,-98
368271,-76
368279,-63
368287,-60
368295,-71
368302,-86
368310,-86
368318,-71
368326,-64
368334,-65
368342,-79
368349,-90
368357,-87
368365,-79
368373,-85
368381,-89
368388,-88
368396,-63
368404,-22
368412,10
368420,4
368427,-42
368435,-90
368443,-109
368451,-94
368459,-70
368467,-57
368474,-56
368482,-23
368490,13
368498,2
368506,-90
368513,-201
368521,127
368529,1245
368537,2300
368545,1863
368552,-134
368560,-2030
368568,-2313
368576,-1262
368584,-279
368592,-39
368599,-88
368607,-40
368615,9
368623,12
368631,18
368638,29
368646,49
368654,69
368662,88
368670,108
368677,134
368685,155
368693,166
368701,154
368709,115
368717,47
368724,-30
368732,-100
368740,-145
368748,-182
368756,-221
368763,-274
368771,-316
368779,-325
368787,-310
368795,-283
368802,-251
368810,-210
368818,-160
368826,-120
368834,-93
368842,-71
368849,-54
368857,-55
368865,-68
368873,-76
368881,-80
368888,-71
368896,-54
368904,-47
368912,-64
368920,-88
368927,-102
368935,-96
368943,-88
368951,-91
368959,-92
368967,-60
368974,-15
368982,12
368990,-8
368998,-52
369006,-87
369013,-95
369021,-87
369029,-72
369037,-69
369045,-54
369052,-15
369060,-11
369068,-57
369076,-171
369084,-146
369092,565
369099,1795
369107,2228
369115,945
369123,-1158
369131,-2276
369138,-1768
369146,-663
369154,-122
369162,-126
369170,-120
369177,-45
369185,-6
369193,28
369201,64
369209,86
369217,103
369224,104
369232,93
369240,91
369248,118
369256,151
369263,161
369271,133
369279,77
369287,9
369295,-65
369302,-130
369310,-171
369318,-192
369326,-221
369334,-261
369342,-292
369349,-294
369357,-278
369365,-252
369373,-219
369381,-178
369388,-132
369396,-109
369404,-101
369412,-86
369420,-62
369427,-37
369435,-37
369443,-63
369451,-81
369459,-75
369467,-60
369474,-62
369482,-74
369490,-78
369498,-68
369506,-59
369513,-64
369521,-79
369529,-77
369537,-52
369545,-7
369552,23
369560,0
369568,-64
369576,-117
369584,-116
369592,-86
369599,-58
369607,-59
369615,-50
369623,-13
369631,-6
369638,-45
369646,-151
369654,-186
369662,404
369670,1604
369677,2188
369685,1099
369693,-983
369701,-2239
369709,-1844
369717,-694
369724,-52
369732,-34
369740,-59
369748,2
369756,26
369763,35
369771,46
369779,43
369787,53
369795,69
369802,90
369810,112
369818,131
369826,143
369834,146
369842,138
369849,108
369857,44
369865,-28
369873,-82
369881,-117
369888,-154
369896,-201
369904,-253
369912,-280
369920,-291
369927,-280
369935,-254
369943,-213
369951,-166
369959,-129
369967,-103
369974,-86
369982,-73
369990,-62
369998,-57
370006,-65
370013,-75
370021,-87
370029,-85
370037,-79
370045,-75
370052,-74
370060,-76
370068,-88
370076,-103
370084,-108
370092,-105
370099,-85
370107,-47
370115,-8
370123,3
370131,-34
370138,-83
370146,-108
370154,-106
370162,-85
370170,-72
370177,-71
370185,-51
370193,-22
370201,-30
370209,-78
370217,-198
370224,-109
370232,693
370240,1829
370248,1961
370256,478
370263,-1462
370271,-2186
370279,-1436
370287,-406
370295,-48
370302,-110
370310,-86
370318,-19
370326,4
370334,21
370342,46
370349,59
370357,67
370365,76
370373,92
370381,112
370388,135
370396,152
370404,158
370412,139
370420,89
370427,14
370435,-60
370443,-111
370451,-145
370459,-184
370467,-238
370474,-291
370482,-323
370490,-325
370498,-308
370506,-271
370513,-221
370521,-170
370529,-141
370537,-125
370545,-105
370552,-90
370560,-72
370568,-61
370576,-57
370584,-65
370592,-77
370599,-85
370607,-74
370615,-58
370623,-53
370631,-61
370638,-76
370646,-83
370654,-64
370662,-25
370670,8
370677,-2
370685,-43
370693,-89
370701,-115
370709,-112
370717,-82
370724,-68
370732,-68
370740,-49
370748,-31
370756,-43
370763,-104
370771,-203
370779,137
370787,1252
370795,2228
370802,1677
370810,-334
370818,-2092
370826,-2200
370834,-1087
370842,-169
370849,0
370857,-53
370865,4
370873,36
370881,27
370888,29
370896,51
370904,97
370912,130
370920,131
370927,123
370935,135
370943,168
370951,194
370959,171
370967,107
370974,27
370982,-52
370990,-108
370998,-143
371006,-179
371013,-216
371021,-240
371029,-262
371037,-277
371045,-281
371052,-259
371060,-202
371068,-125
371076,-77
371084,-77
371092,-94
371099,-102
371107,-93
371115,-75
371123,-74
371131,-84
371138,-80
371146,-73
371154,-80
371162,-107
371170,-116
371177,-82
371185,-46
371193,-44
371201,-70
371209,-87
371217,-87
371224,-97
371232,-85
371240,-22
371248,36
371256,28
371263,-29
371271,-87
371279,-108
371287,-105
371295,-97
371302,-89
371310,-76
371318,-32
371326,50
371334,80
371342,-23
371349,-249
371357,-135
371365,814
371373,1919
371381,1780
371388,119
371396,-1619
371404,-1976
371412,-1096
371420,-230
371427,-59
371435,-156
371443,-101
371451,-25
371459,11
371467,48
371474,48
371482,48
371490,77
371498,83
371506,75
371513,88
371521,125
371529,147
371537,140
371545,95
371552,49
371560,25
371568,-23
371576,-98
371584,-155
371592,-188
371599,-217
371607,-264
371615,-315
371623,-305
371631,-240
371638,-183
371646,-172
371654,-170
371662,-130
371670,-75
371677,-62
371685,-85
371693,-91
371701,-66
371709,-51
371717,-58
371724,-73
371732,-88
371740,-107
371748,-115
371756,-101
371763,-69
371771,-41
371779,-35
371787,-65
371795,-107
371802,-123
371810,-87
371818,-9
371826,49
371834,42
371842,-14
371849,-82
371857,-146
371865,-168
371873,-143
371881,-94
371888,-55
371896,-41
371904,-26
371912,-10
371920,-27
371927,-118
371935,-316
371943,-172
371951,872
371959,2196
371967,2214
371974,399
371982,-1740
371990,-2404
371998,-1511
372006,-430
372013,-79
372021,-97
372029,-27
372037,40
372045,34
372052,27
372060,41
372068,69
372076,95
372084,99
372092,105
372099,126
372107,160
372115,183
372123,176
372131,129
372138,64
372146,-9
372154,-81
372162,-152
372170,-204
372177,-228
372185,-242
372193,-251
372201,-276
372209,-303
372217,-300
372224,-250
372232,-191
372240,-166
372248,-160
372256,-128
372263,-82
372271,-55
372279,-40
372287,-5
372295,19
372302,6
372310,-57
372318,-110
372326,-129
372334,-118
372342,-105
372349,-94
372357,-92
372365,-100
372373,-79
372381,-51
372388,-43
372396,-60
372404,-72
372412,-45
372420,7
372427,30
372435,8
372443,-50
372451,-98
372459,-121
372467,-107
372474,-85
372482,-68
372490,-79
372498,-119
372506,-113
372513,-55
372521,-30
372529,-109
372537,-303
372545,-148
372552,979
372560,2439
372568,2523
372576,615
372584,-1754
372592,-2613
372599,-1750
372607,-588
372615,-166
372623,-180
372631,-120
372638,-41
372646,-18
372654,-6
372662,19
372670,57
372677,88
372685,91
372693,87
372701,107
372709,137
372717,147
372724,137
372732,111
372740,71
372748,21
372756,-45
372763,-111
372771,-182
372779,-229
372787,-261
372795,-294
372802,-337
372810,-345
372818,-297
372826,-238
372834,-228
372842,-217
372849,-164
372857,-97
372865,-53
372873,-37
372881,-46
372888,-60
372896,-54
372904,-7
372912,44
372920,28
372927,-67
372935,-148
372943,-124
372951,-49
372959,-21
372967,-38
372974,-59
372982,-86
372990,-133
372998,-157
373006,-117
373013,-40
373021,9
373029,22
373037,44
373045,57
373052,26
373060,7
373068,17
373076,-49
373084,-193
373092,-248
373099,-131
373107,25
373115,76
373123,11
373131,-45
373138,-113
373146,-206
373154,279
373162,1586
373170,2496
373177,1627
373185,-604
373193,-2259
373201,-2121
373209,-948
373217,-185
373224,-103
373232,-96
373240,-14
373248,3
373256,-10
373263,-15
373271,12
373279,73
373287,94
373295,84
373302,102
373310,132
373318,147
373326,170
373334,189
373342,191
373349,136
373357,20
373365,-90
373373,-127
373381,-131
373388,-174
373396,-258
373404,-357
373412,-432
373420,-412
373427,-324
373435,-235
373443,-172
373451,-151
373459,-138
373467,-101
373474,-73
373482,-90
373490,-97
373498,-45
373506,27
373513,45
373521,-24
373529,-84
373537,-65
373545,-33
373552,-43
373560,-62
373568,-65
373576,-50
373584,-22
373592,-29
373599,-86
373607,-122
373615,-95
373623,-11
373631,67
373638,52
373646,-40
373654,-101
373662,-100
373670,-66
373677,-42
373685,-44
373693,-28
373701,6
373709,-11
373717,-155
373724,-359
373732,-19
373740,1293
373748,2577
373756,2186
373763,23
373771,-2055
373779,-2385
373787,-1303
373795,-336
373802,-132
373810,-160
373818,-59
373826,31
373834,81
373842,90
373849,60
373857,44
373865,61
373873,100
373881,143
373888,156
373896,164
373904,182
373912,180
373920,134
373927,74
373935,11
373943,-69
373951,-150
373959,-231
373967,-300
373974,-336
373982,-337
373990,-312
373998,-288
374006,-276
374013,-258
374021,-210
374029,-159
374037,-128
374045,-94
374052,-66
374060,-47
374068,-36
374076,-19
374084,1
374092,-8
374099,-32
374107,-43
374115,-35
374123,-40
374131,-74
374138,-107
374146,-120
374154,-99
374162,-66
374170,-56
374177,-77
374185,-98
374193,-96
374201,-94
374209,-113
374217,-117
374224,-65
374232,26
374240,68
374248,23
374256,-57
374263,-101
374271,-90
374279,-59
374287,-48
374295,-63
374302,-78
374310,-47
374318,-28
374326,-72
374334,-167
374342,-280
374349,61
374357,1273
374365,2502
374373,2177
374381,85
374388,-2043
374396,-2494
374404,-1458
374412,-422
374420,-175
374427,-226
374435,-126
374443,-33
374451,-22
374459,-23
374467,6
374474,60
374482,92
374490,90
374498,74
374506,72
374513,104
374521,177
374529,247
374537,230
374545,137
374552,41
374560,-17
374568,-80
374576,-174
374584,-210
374592,-188
374599,-215
374607,-325
374615,-420
374623,-426
374631,-343
374638,-241
374646,-188
374654,-150
374662,-115
374670,-91
374677,-66
374685,-51
374693,-45
374701,-37
374709,-31
374717,-32
374724,-39
374732,-33
374740,-11
374748,11
374756,-9
374763,-67
374771,-99
374779,-88
374787,-66
374795,-67
374802,-77
374810,-89
374818,-102
374826,-99
374834,-26
374842,70
374849,73
374857,-26
374865,-117
374873,-128
374881,-87
374888,-54
374896,-34
374904,-37
374912,-25
374920,-14
374927,-60
374935,-179
374943,-340
374951,-45
374959,1266
374967,2776
374974,2693
374982,519
374990,-2015
374998,-2843
375006,-1846
375013,-626
375021,-233
375029,-255
375037,-151
375045,-6
375052,40
375060,27
375068,6
375076,41
375084,88
375092,81
375099,44
375107,46
375115,125
375123,243
375131,294
375138,242
375146,133
375154,33
375162,-34
375170,-76
375177,-135
375185,-230
375193,-325
375201,-352
375209,-323
375217,-304
375224,-306
375232,-288
375240,-230
375248,-190
375256,-182
375263,-130
375271,-39
375279,-3
375287,-52
375295,-80
375302,-56
375310,-28
375318,-39
375326,-37
375334,26
375342,81
375349,39
375357,-60
375365,-159
375373,-182
375381,-117
375388,-17
375396,28
375404,-31
375412,-139
375420,-234
375427,-208
375435,-59
375443,84
375451,111
375459,17
375467,-97
375474,-136
375482,-95
375490,-24
375498,7
375506,-35
375513,-116
375521,-90
375529,3
375537,-16
375545,-180
375552,-362
375560,-22
375568,1286
375576,2679
375584,2499
375592,387
375599,-1984
375607,-2705
375615,-1720
375623,-562
375631,-221
375638,-269
375646,-183
375654,-44
375662,40
375670,61
375677,36
375685,3
375693,-20
375701,-15
375709,60
375717,171
375724,236
375732,211
375740,145
375748,95
375756,103
375763,127
375771,102
375779,11
375787,-104
375795,-197
375802,-262
375810,-319
375818,-401
375826,-447
375834,-373
375842,-228
375849,-135
375857,-130
375865,-166
375873,-174
375881,-152
375888,-126
375896,-107
375904,-88
375912,-41
375920,6
375927,8
375935,-50
375943,-107
375951,-115
375959,-87
375967,-70
375974,-71
375982,-57
375990,-27
375998,-40
376006,-85
376013,-126
376021,-143
376029,-114
376037,-73
376045,-38
376052,-10
376060,22
376068,52
376076,34
376084,-36
376092,-113
376099,-150
376107,-120
376115,-80
376123,-55
376131,-30
376138,-29
376146,-70
376154,-135
376162,-232
376170,17
376177,1083
376185,2311
376193,2195
376201,329
376209,-1786
376217,-2416
376224,-1551
376232,-528
376240,-216
376248,-209
376256,-83
376263,8
376271,-25
376279,-72
376287,-54
376295,29
376302,112
376310,135
376318,76
376326,33
376334,110
376342,213
376349,224
376357,183
376365,196
376373,188
376381,34
376388,-205
376396,-273
376404,-143
376412,-98
376420,-256
376427,-429
376435,-449
376443,-337
376451,-243
376459,-254
376467,-274
376474,-185
376482,-56
376490,-54
376498,-155
376506,-208
376513,-124
376521,4
376529,20
376537,-27
376545,-46
376552,-87
376560,-119
376568,-63
376576,31
376584,45
376592,-69
376599,-183
376607,-163
376615,-20
376623,40
376631,-75
376638,-196
376646,-188
376654,-56
376662,70
376670,80
376677,-4
376685,-80
376693,-92
376701,-63
376709,-42
376717,-38
376724,-58
376732,-66
376740,-50
376748,-36
376756,-36
376763,-143
376771,-290
376779,202
376787,1650
376795,2780
376802,1981
376810,-450
376818,-2437
376826,-2501
376834,-1295
376842,-379
376849,-194
376857,-128
376865,28
376873,43
376881,-30
376888,-54
376896,18
376904,111
376912,120
376920,81
376927,88
376935,132
376943,203
376951,271
376959,264
376967,170
376974,67
376982,9
376990,-26
376998,-77
377006,-164
377013,-242
377021,-308
377029,-388
377037,-411
377045,-315
377052,-196
377060,-157
377068,-201
377076,-242
377084,-211
377092,-146
377099,-118
377107,-81
377115,6
377123,65
377131,29
377138,-37
377146,-56
377154,-28
377162,-20
377170,-62
377177,-104
377185,-105
377193,-94
377201,-83
377209,-57
377217,-54
377224,-80
377232,-94
377240,-85
377248,-94
377256,-121
377263,-101
377271,-23
377279,71
377287,92
377295,-2
377302,-111
377310,-144
377318,-102
377326,-53
377334,-57
377342,-56
377349,-6
377357,11
377365,-87
377373,-288
377381,-225
377388,752
377396,2336
377404,2925
377412,1383
377420,-1244
377427,-2742
377435,-2252
377443,-944
377451,-239
377459,-184
377467,-171
377474,-105
377482,-90
377490,-77
377498,-18
377506,58
377513,81
377521,71
377529,92
377537,133
377545,176
377552,195
377560,205
377568,217
377576,210
377584,156
377592,69
377599,-25
377607,-126
377615,-203
377623,-234
377631,-276
377638,-363
377646,-416
377654,-363
377662,-274
377670,-239
377677,-256
377685,-273
377693,-219
377701,-118
377709,-47
377717,-41
377724,-43
377732,-25
377740,39
377748,91
377756,5
377763,-132
377771,-137
377779,-51
377787,4
377795,-38
377802,-95
377810,-68
377818,8
377826,9
377834,-69
377842,-119
377849,-93
377857,-45
377865,-16
377873,-10
377881,-32
377888,-52
377896,-31
377904,-30
377912,-97
377920,-179
377927,-173
377935,-68
377943,40
377951,17
377959,-81
377967,-173
377974,-181
377982,449
377990,1901
377998,2792
378006,1656
378013,-881
378021,-2665
378029,-2460
378037,-1139
378045,-243
378052,-73
378060,-25
378068,51
378076,2
378084,-33
378092,14
378099,58
378107,95
378115,119
378123,68
378131,5
378138,29
378146,149
378154,252
378162,255
378170,207
378177,141
378185,67
378193,-12
378201,-119
378209,-223
378217,-292
378224,-354
378232,-352
378240,-326
378248,-369
378256,-388
378263,-305
378271,-188
378279,-116
378287,-102
378295,-153
378302,-197
378310,-134
378318,-45
378326,-3
378334,-4
378342,-30
378349,-12
378357,5
378365,-31
378373,-48
378381,-29
378388,-39
378396,-79
378404,-106
378412,-118
378420,-126
378427,-113
378435,-66
378443,-26
378451,-9
378459,-18
378467,-48
378474,-105
378482,-171
378490,-179
378498,-87
378506,22
378513,46
378521,-12
378529,-74
378537,-115
378545,-186
378552,-279
378560,83
378568,1263
378576,2403
378584,2012
378592,-10
378599,-2002
378607,-2402
378615,-1442
378623,-473
378631,-163
378638,-134
378646,-54
378654,15
378662,26
378670,4
378677,-24
378685,-21
378693,10
378701,48
378709,68
378717,81
378724,116
378732,176
378740,185
378748,151
378756,100
378763,23
378771,-29
378779,-58
378787,-108
378795,-188
378802,-270
378810,-351
378818,-394
378826,-356
378834,-266
378842,-199
378849,-161
378857,-155
378865,-144
378873,-109
378881,-99
378888,-109
378896,-94
378904,-74
378912,-69
378920,-58
378927,-17
378935,37
378943,72
378951,34
378959,-50
378967,-88
378974,-64
378982,-55
378990,-65
378998,-81
379006,-65
379013,-28
379021,-24
379029,-48
379037,-27
379045,-24
379052,-65
379060,-79
379068,-27
379076,-17
379084,-84
379092,-146
379099,-78
379107,62
379115,53
379123,-118
379131,-258
379138,-93
379146,766
379154,2024
379162,2368
379170,934
379177,-1293
379185,-2441
379193,-1879
379201,-655
379209,-24
379217,-52
379224,-114
379232,-71
379240,-72
379248,-66
379256,27
379263,132
379271,80
379279,-53
379287,-48
379295,128
379302,282
379310,227
379318,49
379326,31
379334,128
379342,80
379349,-43
379357,-46
379365,91
379373,121
379381,-142
379388,-413
379396,-414
379404,-250
379412,-232
379420,-278
379427,-190
379435,-123
379443,-170
379451,-156
379459,23
379467,119
379474,-112
379482,-356
379490,-225
379498,143
379506,266
379513,-24
379521,-286
379529,-164
379537,71
379545,69
379552,-66
379560,-78
379568,2
379576,-9
379584,-162
379592,-216
379599,-61
379607,70
379615,45
379623,-27
379631,-77
379638,-109
379646,-103
379654,-65
379662,-58
379670,-84
379677,-98
379685,-71
379693,-59
379701,-128
379709,-242
379717,-18
379724,985
379732,2106
379740,1904
379748,106
379756,-1796
379763,-2230
379771,-1315
379779,-333
379787,-39
379795,-77
379802,-20
379810,21
379818,-22
379826,-36
379834,1
379842,66
379849,99
379857,59
379865,6
379873,31
379881,108
379888,172
379896,209
379904,201
379912,126
379920,15
379927,-52
379935,-69
379943,-117
379951,-205
379959,-274
379967,-309
379974,-344
379982,-343
379990,-276
379998,-217
380006,-205
380013,-200
380021,-160
380029,-96
380037,-79
380045,-119
380052,-151
380060,-107
380068,-20
380076,0
380084,-55
380092,-112
380099,-112
380107,-75
380115,-47
380123,-5
380131,28
380138,-5
380146,-114
380154,-171
380162,-121
380170,-40
380177,10
380185,21
380193,-7
380201,-42
380209,-75
380217,-123
380224,-162
380232,-156
380240,-82
380248,47
380256,93
380263,-4
380271,-219
380279,-375
380287,161
380295,1547
380302,2533
380310,1705
380318,-547
380326,-2262
380334,-2171
380342,-1003
380349,-214
380357,-143
380365,-164
380373,-38
380381,36
380388,10
380396,-18
380404,29
380412,86
380420,83
380427,76
380435,114
380443,143
380451,132
380459,136
380467,163
380474,139
380482,23
380490,-83
380498,-104
380506,-115
380513,-164
380521,-200
380529,-207
380537,-233
380545,-301
380552,-324
380560,-271
380568,-193
380576,-129
380584,-94
380592,-91
380599,-108
380607,-123
380615,-111
380623,-87
380631,-77
380638,-83
380646,-91
380654,-74
380662,-59
380670,-56
380677,-62
380685,-83
380693,-97
380701,-89
380709,-70
380717,-74
380724,-87
380732,-81
380740,-48
380748,-4
380756,22
380763,0
380771,-51
380779,-103
380787,-129
380795,-111
380802,-62
380810,-35
380818,-44
380826,-44
380834,-31
380842,-39
380849,-136
380857,-276
380865,63
380873,1154
380881,2059
380888,1509
380896,-351
380904,-1908
380912,-1955
380920,-943
380927,-134
380935,8
380943,-43
380951,-10
380959,14
380967,19
380974,30
380982,53
380990,83
380998,94
381006,93
381013,100
381021,118
381029,132
381037,130
381045,112
381052,76
381060,21
381068,-51
381076,-119
381084,-161
381092,-170
381099,-168
381107,-183
381115,-212
381123,-226
381131,-224
381138,-211
381146,-188
381154,-171
381162,-161
381170,-161
381177,-148
381185,-115
381193,-80
381201,-80
381209,-92
381217,-98
381224,-90
381232,-83
381240,-78
381248,-81
381256,-80
381263,-76
381271,-79
381279,-81
381287,-76
381295,-88
381302,-97
381310,-79
381318,-27
381326,23
381334,17
381342,-48
381349,-113
381357,-140
381365,-137
381373,-121
381381,-109
381388,-97
381396,-43
381404,-5
381412,-36
381420,-178
381427,-295
381435,197
381443,1484
381451,2407
381459,1589
381467,-619
381474,-2314
381482,-2222
381490,-1006
381498,-113
381506,18
381513,-44
381521,-12
381529,9
381537,19
381545,39
381552,29
381560,1
381568,2
381576,43
381584,87
381592,110
381599,122
381607,153
381615,183
381623,149
381631,32
381638,-93
381646,-170
381654,-213
381662,-244
381670,-255
381677,-253
381685,-247
381693,-252
381701,-257
381709,-242
381717,-196
381724,-149
381732,-120
381740,-116
381748,-117
381756,-93
381763,-51
381771,-29
381779,-40
381787,-70
381795,-79
381802,-76
381810,-77
381818,-77
381826,-82
381834,-90
381842,-96
381849,-92
381857,-82
381865,-75
381873,-56
381881,-12
381888,18
381896,-5
381904,-60
381912,-90
381920,-84
381927,-67
381935,-52
381943,-52
381951,-46
381959,-19
381967,-6
381974,-27
381982,-128
381990,-193
381998,323
382006,1478
382013,2116
382021,1149
382029,-840
382037,-2121
382045,-1807
382052,-716
382060,-67
382068,-25
382076,-47
382084,11
382092,32
382099,54
382107,74
382115,85
382123,93
382131,102
382138,107
382146,107
382154,109
382162,116
382170,125
382177,109
382185,72
382193,19
382201,-32
382209,-82
382217,-118
382224,-156
382232,-181
382240,-194
382248,-213
382256,-234
382263,-233
382271,-203
382279,-158
382287,-126
382295,-116
382302,-112
382310,-96
382318,-76
382326,-72
382334,-66
382342,-60
382349,-57
382357,-64
382365,-77
382373,-84
382381,-77
382388,-69
382396,-70
382404,-77
382412,-83
382420,-72
382427,-38
382435,-3
382443,16
382451,-9
382459,-63
382467,-103
382474,-111
382482,-93
382490,-68
382498,-49
382506,-40
382513,-14
382521,-15
382529,-65
382537,-165
382545,-246
382552,178
382560,1314
382568,2171
382576,1482
382584,-503
382592,-2067
382599,-2010
382607,-925
382615,-147
382623,-53
382631,-88
382638,-13
382646,22
382654,15
382662,24
382670,47
382677,70
382685,83
382693,84
382701,94
382709,123
382717,153
382724,161
382732,134
382740,92
382748,41
382756,-19
382763,-78
382771,-124
382779,-153
382787,-179
382795,-220
382802,-256
382810,-278
382818,-287
382826,-277
382834,-236
382842,-183
382849,-145
382857,-129
382865,-115
382873,-85
382881,-54
382888,-47
382896,-58
382904,-66
382912,-68
382920,-66
382927,-57
382935,-47
382943,-51
382951,-72
382959,-103
382967,-117
382974,-97
382982,-51
382990,-3
382998,2
383006,-39
383013,-95
383021,-121
383029,-113
383037,-94
383045,-72
383052,-67
383060,-45
383068,-6
383076,-28
383084,-106
383092,-238
383099,-82
383107,856
383115,2061
383123,2101
383131,429
383138,-1641
383146,-2366
383154,-1538
383162,-430
383170,-24
383177,-62
383185,-39
383193,16
383201,26
383209,40
383217,49
383224,57
383232,70
383240,83
383248,98
383256,107
383263,124
383271,141
383279,148
383287,124
383295,69
383302,-5
383310,-72
383318,-129
383326,-161
383334,-186
383342,-214
383349,-244
383357,-263
383365,-265
383373,-246
383381,-221
383388,-181
383396,-145
383404,-112
383412,-95
383420,-84
383427,-80
383435,-79
383443,-82
383451,-76
383459,-68
383467,-64
383474,-70
383482,-75
383490,-76
383498,-86
383506,-103
383513,-105
383521,-85
383529,-45
383537,-3
383545,3
383552,-36
383560,-91
383568,-124
383576,-108
383584,-67
383592,-56
383599,-66
383607,-45
383615,-20
383623,-29
383631,-98
383638,-147
383646,262
383654,1297
383662,2002
383670,1244
383677,-644
383685,-2037
383693,-1879
383701,-796
383709,-53
383717,17
383724,-49
383732,-8
383740,20
383748,27
383756,48
383763,54
383771,65
383779,74
383787,84
383795,98
383802,116
383810,129
383818,133
383826,116
383834,83
383842,27
383849,-45
383857,-105
383865,-142
383873,-154
383881,-164
383888,-193
383896,-227
383904,-250
383912,-252
383920,-230
383927,-191
383935,-149
383943,-116
383951,-106
383959,-105
383967,-97
383974,-80
383982,-71
383990,-77
383998,-83
384006,-81
384013,-74
384021,-80
384029,-85
384037,-80
384045,-70
384052,-69
384060,-76
384068,-75
384076,-47
384084,-7
384092,-3
384099,-45
384107,-97
384115,-117
384123,-100
384131,-78
384138,-72
384146,-82
384154,-66
384162,-27
384170,-25
384177,-77
384185,-187
384193,-49
384201,745
384209,1708
384217,1633
384224,174
384232,-1489
384240,-1957
384248,-1196
384256,-300
384263,-4
384271,-45
384279,-26
384287,12
384295,24
384302,37
384310,33
384318,25
384326,41
384334,60
384342,57
384349,53
384357,76
384365,116
384373,136
384381,110
384388,51
384396,-20
384404,-83
384412,-128
384420,-142
384427,-145
384435,-160
384443,-194
384451,-226
384459,-241
384467,-223
384474,-192
384482,-167
384490,-150
384498,-134
384506,-114
384513,-102
384521,-98
384529,-102
384537,-101
384545,-96
384552,-89
384560,-82
384568,-76
384576,-75
384584,-77
384592,-78
384599,-77
384607,-73
384615,-76
384623,-83
384631,-74
384638,-44
384646,-6
384654,12
384662,-13
384670,-55
384677,-90
384685,-103
384693,-99
384701,-94
384709,-86
384717,-77
384724,-43
384732,-23
384740,-44
384748,-126
384756,-201
384763,201
384771,1287
384779,2089
384787,1414
384795,-497
384802,-1989
384810,-1925
384818,-869
384826,-107
384834,-16
384842,-65
384849,-16
384857,5
384865,-2
384873,14
384881,36
384888,62
384896,63
384904,55
384912,69
384920,109
384927,145
384935,161
384943,147
384951,112
384959,42
384967,-40
384974,-103
384982,-126
384990,-136
384998,-154
385006,-192
385013,-234
385021,-267
385029,-275
385037,-253
385045,-219
385052,-194
385060,-170
385068,-136
385076,-95
385084,-68
385092,-64
385099,-71
385107,-79
385115,-78
385123,-75
385131,-78
385138,-88
385146,-92
385154,-86
385162,-79
385170,-83
385177,-88
385185,-91
385193,-91
385201,-101
385209,-98
385217,-77
385224,-26
385232,15
385240,7
385248,-49
385256,-106
385263,-124
385271,-112
385279,-95
385287,-88
385295,-90
385302,-61
385310,-18
385318,-17
385326,-77
385334,-213
385342,-107
385349,764
385357,1943
385365,2034
385373,455
385381,-1546
385388,-2258
385396,-1462
385404,-388
385412,3
385420,-46
385427,-33
385435,8
385443,6
385451,16
385459,25
385467,39
385474,66
385482,96
385490,116
385498,120
385506,117
385513,122
385521,141
385529,144
385537,105
385545,37
385552,-41
385560,-100
385568,-133
385576,-163
385584,-197
385592,-234
385599,-265
385607,-277
385615,-271
385623,-249
385631,-217
385638,-180
385646,-143
385654,-111
385662,-81
385670,-57
385677,-49
385685,-49
385693,-49
385701,-46
385709,-51
385717,-59
385724,-70
385732,-70
385740,-65
385748,-56
385756,-48
385763,-47
385771,-52
385779,-63
385787,-75
385795,-85
385802,-74
385810,-43
385818,4
385826,23
385834,-6
385842,-61
385849,-98
385857,-102
385865,-89
385873,-78
385881,-70
385888,-41
385896,-2
385904,-7
385912,-67
385920,-204
385927,-117
385935,661
385943,1710
385951,1760
385959,331
385967,-1418
385974,-1975
385982,-1227
385990,-308
385998,-18
386006,-58
386013,-18
386021,30
386029,21
386037,26
386045,45
386052,58
386060,63
386068,66
386076,86
386084,107
386092,124
386099,132
386107,136
386115,121
386123,89
386131,50
386138,7
386146,-33
386154,-86
386162,-143
386170,-194
386177,-235
386185,-272
386193,-301
386201,-305
386209,-270
386217,-218
386224,-184
386232,-167
386240,-137
386248,-93
386256,-71
386263,-80
386271,-98
386279,-99
386287,-88
386295,-81
386302,-80
386310,-69
386318,-63
386326,-75
386334,-102
386342,-111
386349,-86
386357,-49
386365,-34
386373,-60
386381,-91
386388,-103
386396,-98
386404,-81
386412,-50
386420,-2
386427,27
386435,6
386443,-54
386451,-106
386459,-128
386467,-111
386474,-86
386482,-86
386490,-66
386498,-27
386506,-13
386513,-65
386521,-203
386529,-68
386537,864
386545,2072
386552,2068
386560,323
386568,-1763
386576,-2419
386584,-1506
386592,-362
386599,46
386607,12
386615,29
386623,66
386631,46
386638,47
386646,60
386654,61
386662,54
386670,59
386677,87
386685,119
386693,147
386701,159
386709,162
386717,144
386724,99
386732,25
386740,-49
386748,-107
386756,-150
386763,-189
386771,-236
386779,-282
386787,-318
386795,-329
386802,-317
386810,-294
386818,-252
386826,-204
386834,-156
386842,-110
386849,-71
386857,-53
386865,-53
386873,-42
386881,-23
386888,-10
386896,-18
386904,-48
386912,-66
386920,-68
386927,-66
386935,-67
386943,-68
386951,-70
386959,-71
386967,-81
386974,-90
386982,-87
386990,-74
386998,-55
387006,-24
387013,-7
387021,-25
387029,-69
387037,-100
387045,-94
387052,-68
387060,-60
387068,-75
387076,-54
387084,-11
387092,-24
387099,-102
387107,-220
387115,19
387123,1017
387131,2100
387138,1871
387146,69
387154,-1823
387162,-2239
387170,-1275
387177,-268
387185,-2
387193,-76
387201,-56
387209,-18
387217,-10
387224,17
387232,42
387240,54
387248,63
387256,75
387263,101
387271,119
387279,134
387287,153
387295,169
387302,159
387310,121
387318,56
387326,-16
387334,-79
387342,-128
387349,-181
387357,-234
387365,-286
387373,-321
387381,-320
387388,-295
387396,-258
387404,-223
387412,-191
387420,-157
387427,-116
387435,-78
387443,-61
387451,-57
387459,-59
387467,-60
387474,-62
387482,-65
387490,-62
387498,-50
387506,-55
387513,-64
387521,-74
387529,-70
387537,-64
387545,-65
387552,-85
387560,-94
387568,-83
387576,-60
387584,-53
387592,-68
387599,-86
387607,-82
387615,-41
387623,10
387631,30
387638,4
387646,-51
387654,-90
387662,-94
387670,-86
387677,-81
387685,-85
387693,-60
387701,-5
387709,8
387717,-48
387724,-185
387732,-213
387740,414
387748,1599
387756,2104
387763,969
387771,-1032
387779,-2146
387787,-1677
387795,-597
387802,-59
387810,-65
387818,-66
387826,7
387834,10
387842,-3
387849,19
387857,49
387865,57
387873,48
387881,73
387888,136
387896,176
387904,159
387912,124
387920,118
387927,131
387935,106
387943,32
387951,-58
387959,-121
387967,-154
387974,-173
387982,-210
387990,-254
387998,-283
388006,-289
388013,-276
388021,-252
388029,-227
388037,-188
388045,-150
388052,-122
388060,-105
388068,-91
388076,-78
388084,-65
388092,-61
388099,-65
388107,-69
388115,-70
388123,-70
388131,-62
388138,-47
388146,-30
388154,-26
388162,-42
388170,-61
388177,-64
388185,-52
388193,-41
388201,-47
388209,-58
388217,-62
388224,-64
388232,-82
388240,-111
388248,-127
388256,-111
388263,-71
388271,-35
388279,-24
388287,-42
388295,-73
388302,-103
388310,-112
388318,-97
388326,-68
388334,-64
388342,-55
388349,-39
388357,-47
388365,-127
388373,-269
388381,-49
388388,929
388396,1940
388865,-37
388873,-36
388881,-34
388888,-37
388896,-33
388904,-26
388912,-4
388920,26
388928,27
388935,-23
388943,-97
388951,-137
388959,-116
388967,-71
388974,-48
388982,-24
388990,-7
388998,-16
389006,-78
389013,-199
389021,-73
389029,717
389037,1688
389045,1637
389053,179
389060,-1507
389068,-1993
389076,-1221
389084,-297
389092,8
389099,-29
389107,-12
389115,21
389123,15
389131,24
389138,35
389146,53
389154,78
389162,89
389170,104
389178,128
389185,148
389193,166
389201,172
389209,166
389217,144
389224,100
389232,31
389240,-38
389248,-88
389256,-116
389263,-132
389271,-145
389279,-170
389287,-193
389295,-213
389303,-213
389310,-196
389318,-162
389326,-109
389334,-76
389342,-74
389349,-90
389357,-89
389365,-60
389373,-38
389381,-51
389388,-82
389396,-97
389404,-102
389412,-108
389420,-114
389428,-106
389435,-93
389443,-92
389451,-105
389459,-104
389467,-88
389474,-72
389482,-70
389490,-74
389498,-77
389506,-85
389513,-75
389521,-43
389529,-10
389537,-18
389545,-61
389553,-101
389560,-105
389568,-73
389576,-33
389584,-15
389592,-20
389599,-47
389607,-66
389615,-82
389623,-83
389631,-71
389638,-59
389646,-38
389654,-4
389662,-1
389670,-48
389678,-162
389685,-30
389693,874
389701,2111
389709,2233
389717,578
389724,-1583
389732,-2429
389740,-1629
389748,-461
389756,12
389763,-21
389771,-17
389779,33
389787,56
389795,74
389803,69
389810,30
389818,-4
389826,-8
389834,20
389842,63
389849,109
389857,123
389865,95
389873,63
389881,56
389888,52
389896,21
389904,-47
389912,-116
389920,-150
389928,-160
389935,-179
389943,-224
389951,-284
389959,-333
389967,-332
389974,-290
389982,-239
390482,184
390490,195
390498,190
390505,148
390513,76
390521,-22
390529,-113
390537,-176
390545,-213
390552,-243
390560,-266
390568,-281
390576,-287
390584,-287
390591,-278
390599,-244
390607,-196
390615,-155
390623,-139
390630,-122
390638,-87
390646,-40
390654,-23
390662,-54
390670,-100
390677,-117
390685,-94
390693,-61
390701,-46
390709,-54
390716,-71
390724,-84
390732,-91
390740,-88
390748,-85
390755,-90
390763,-93
390771,-82
390779,-54
390787,-42
390795,-60
390802,-77
390810,-77
390818,-62
390826,-46
390834,-23
390841,-1
390849,-4
390857,-45
390865,-90
390873,-94
390880,-66
390888,-49
390896,-71
390904,-90
390912,-68
390920,-53
390927,-86
390935,-207
390943,-57
390951,926
390959,2222
390966,2260
390974,442
390982,-1796
390990,-2560
390998,-1652
391005,-460
391013,-28
391021,-77
391029,-76
391037,-47
391045,-57
391052,-21
391060,55
391068,132
391076,176
391084,170
391091,148
391099,154
391107,191
391115,211
391123,200
391130,184
391138,172
391146,108
391154,-2
391162,-127
391170,-273
391177,-384
391185,-358
391193,-231
391201,-160
391209,-268
391216,-467
391224,-573
391232,-533
391240,-438
391248,-357
391255,-275
391263,-192
391271,-128
391279,-65
391287,-21
391295,-2
391302,7
391310,26
391318,44
391326,58
391334,63
391341,57
391349,45
391357,21
391365,0
391373,-8
391380,-6
391388,-11
391396,-30
391404,-53
391412,-74
391420,-91
391427,-96
391435,-96
391443,-92
391451,-82
391459,-79
391466,-69
391474,-34
391482,10
391490,33
391498,3
391505,-54
391513,-95
391521,-95
391529,-66
391537,-54
391545,-67
391552,-49
391560,-22
391568,-34
391576,-130
391584,-274
391591,59
391599,1309
391607,2532
391615,2110
391623,-78
391630,-2188
391638,-2503
391646,-1334
391654,-266
391662,-36
391670,-122
391677,-68
391685,-4
391693,21
391701,40
391709,48
391716,55
391724,65
391732,83
391740,107
391748,126
391755,141
391763,150
391771,152
391779,144
391787,113
391795,67
391802,-6
391810,-95
391818,-165
391826,-187
391834,-181
391841,-188
391849,-231
391857,-273
391865,-299
391873,-298
391880,-277
391888,-234
391896,-176
391904,-131
391912,-123
391920,-124
391927,-111
391935,-79
391943,-53
391951,-55
391959,-82
391966,-92
391974,-69
391982,-51
391990,-60
391998,-76
392005,-71
392013,-55
392021,-45
392029,-53
392037,-60
392045,-61
392052,-61
392060,-68
392068,-69
392076,-58
392084,-45
392091,-35
392099,-33
392107,-37
392115,-43
392123,-45
392130,-40
392138,-33
392146,-39
392154,-61
392162,-76
392170,-53
392177,-2
392185,30
392193,24
392201,-16
392209,-72
392216,-108
392224,-107
392232,-85
392240,-77
392248,-71
392255,-41
392263,-30
392271,-74
392279,-233
392287,-303
392295,424
392302,1891
392310,2584
392318,1269
392326,-1156
392334,-2550
392341,-2018
392349,-710
392357,-57
392365,-89
392373,-101
392380,-1
392388,40
392396,52
392404,60
392412,67
392420,81
392427,91
392435,99
392443,109
392451,113
392459,124
392466,138
392474,143
392482,116
392490,61
392498,-5
392505,-56
392513,-90
392521,-101
392529,-98
392537,-107
392545,-149
392552,-204
392560,-248
392568,-262
392576,-256
392584,-237
392591,-216
392599,-194
392607,-175
392615,-155
392623,-138
392630,-128
392638,-123
392646,-102
392654,-70
392662,-57
392670,-60
392677,-74
392685,-78
392693,-79
392701,-90
392709,-106
392716,-108
392724,-102
392732,-102
392740,-106
392748,-103
392755,-84
392763,-46
392771,-12
392779,2
392787,2
392795,-4
392802,-10
392810,-4
392818,5
392826,4
392834,-8
392841,-13
392849,-3
392857,26
392865,53
392873,48
392880,10
392888,-45
392896,-80
392904,-87
392912,-65
392920,-52
392927,-48
392935,-18
392943,4
392951,-17
392959,-146
392966,-258
392974,286
392982,1664
392990,2564
392998,1589
393005,-716
393013,-2290
393021,-2052
393029,-897
393037,-201
393045,-112
393052,23
393060,269
393068,343
393076,305
393084,323
393091,419
393099,513
393107,475
393115,293
393123,122
393130,92
393138,141
393146,138
393154,61
393162,-37
393170,-134
393177,-258
393185,-395
393193,-532
393201,-629
393209,-631
393216,-533
393224,-438
393232,-394
393240,-357
393248,-224
393255,-7
393263,199
393271,308
393279,349
393287,371
393295,411
393302,425
393310,339
393318,202
393326,96
393334,-51
393341,-274
393349,-455
393357,-486
393365,-379
393373,-186
393380,-80
393388,-285
393396,-771
393404,-1182
393412,-1101
393420,-551
393427,-20
393435,173
393443,150
393451,88
393459,-9
393466,-113
393474,-157
393482,-173
393490,-196
393498,-224
393505,-215
393513,-151
393521,-75
393529,-63
393537,-127
393545,-203
393552,-233
393560,-209
393568,-170
393576,-157
393584,-145
393591,-88
393599,-52
393607,-133
393615,-411
393623,-656
393630,-124
393638,1264
393646,2097
393654,1094
393662,-1044
393670,-2311
393677,-1791
393685,-515
393693,141
393701,107
393709,63
393716,138
393724,154
393732,136
393740,122
393748,118
393755,131
393763,129
393771,114
393779,115
393787,137
393795,162
393802,175
393810,170
393818,148
393826,105
393834,55
393841,18
393849,5
393857,-3
393865,-33
393873,-95
393880,-177
393888,-253
393896,-301
393904,-312
393912,-293
393920,-255
393927,-218
393935,-192
393943,-169
393951,-147
393959,-125
393966,-113
393974,-109
393982,-111
393990,-106
393998,-111
394005,-123
394013,-128
394021,-119
394029,-109
394037,-105
394045,-102
394052,-98
394060,-92
394068,-88
394076,-89
394084,-91
394091,-95
394099,-90
394373,94
394381,96
394389,99
394396,96
394404,96
394412,95
394420,99
394428,115
394436,130
394443,144
394451,160
394459,166
394467,126
394475,33
394482,-91
394490,-176
394498,-189
394506,-152
394514,-120
394521,-122
394529,-158
394537,-207
394545,-256
394553,-285
394561,-283
394568,-243
394576,-197
394584,-167
394592,-154
394600,-138
394607,-111
394615,-81
394623,-70
394631,-77
394639,-92
394646,-98
394654,-90
394662,-75
394670,-74
394678,-85
394686,-95
394693,-89
394701,-75
394709,-62
394717,-53
394725,-41
394732,-21
394740,-2
394748,0
394756,-17
394764,-42
394771,-39
394779,5
394787,50
394795,40
394803,-21
394811,-68
394818,-77
394826,-58
394834,-48
394842,-57
394850,-48
394857,-14
394865,-18
394873,-75
394881,-193
394889,-19
394896,866
394904,1869
394912,1665
394920,-24
394928,-1795
394936,-2135
394943,-1139
394951,-113
394959,159
394967,61
394975,55
394982,82
394990,79
394998,76
395006,52
395014,41
395021,51
395029,61
395037,71
395045,82
395053,104
395061,125
395068,122
395076,94
395084,54
395092,0
395100,-58
395107,-105
395115,-134
395123,-146
395131,-156
395139,-175
395146,-208
395154,-243
395162,-268
395170,-267
395178,-247
395186,-217
395193,-182
395201,-155
395209,-135
395217,-118
395225,-102
395232,-86
395240,-73
395248,-70
395256,-71
395264,-74
395271,-72
395279,-76
395287,-85
395295,-90
395303,-82
395311,-67
395318,-64
395326,-71
395334,-69
395342,-59
395350,-56
395357,-62
395365,-67
395373,-47
395381,-11
395389,7
395396,-19
395404,-70
395412,-109
395420,-108
395428,-81
395436,-62
395443,-66
395451,-41
395459,-14
395467,-26
395475,-93
395482,-176
395490,113
395498,1069
395506,1910
395514,1428
395521,-331
395529,-1865
395537,-1937
395545,-926
395553,-99
395561,36
395568,-35
395576,6
395584,33
395592,29
395600,39
395607,48
395615,58
395623,72
395631,83
395639,85
395646,83
395654,87
395662,109
395670,122
395678,103
395686,53
395693,-14
395701,-71
395709,-102
395717,-109
395725,-103
395732,-122
395740,-180
395748,-245
395756,-257
395764,-215
395771,-160
395779,-139
395787,-149
395795,-161
395803,-157
395811,-147
395818,-145
395826,-139
395834,-122
395842,-99
395850,-86
395857,-84
395865,-88
395873,-83
395881,-74
395889,-72
395896,-65
395904,-51
395912,-46
395920,-59
395928,-76
395936,-74
395943,-65
395951,-66
395959,-80
395967,-91
395975,-87
395982,-70
395990,-39
395998,-13
396006,-26
396014,-77
396021,-131
396029,-147
396037,-127
396045,-91
396053,-78
396061,-75
396068,-59
396076,-55
396084,-68
396092,-156
396100,-185
396107,354
396115,1395
396123,1811
396131,728
396139,-1110
396146,-2074
396154,-1555
396162,-495
396170,-4
396178,-44
396186,-60
396193,9
396201,30
396209,25
396217,32
396225,48
396232,60
396240,66
396248,69
396256,79
396264,113
396271,191
396279,280
396287,303
396295,220
396303,83
396311,-24
396318,-66
396326,-52
396334,-18
396342,-4
396350,-52
396357,-141
396365,-204
396373,-222
396381,-222
396389,-236
396396,-245
396404,-229
396412,-187
396420,-141
396428,-111
396436,-114
396443,-129
396451,-128
396459,-107
396467,-80
396475,-72
396482,-80
396490,-88
396498,-97
396506,-102
396514,-102
396521,-96
396529,-92
396537,-96
396545,-104
396553,-100
396561,-79
396568,-70
396576,-83
396584,-108
396592,-94
396600,-43
396607,3
396615,-8
396623,-62
396631,-109
396639,-122
396646,-102
396654,-71
396662,-68
396670,-73
396678,-46
396686,-20
396693,-25
396701,-113
396709,-191
396717,279
396725,1389
396732,2038
396740,1109
396748,-871
396756,-2161
396764,-1821
396771,-667
396779,11
396787,30
396795,-23
396803,24
396811,30
396818,17
396826,26
396834,56
396842,91
396850,94
396857,91
396865,106
396873,135
396881,154
396889,140
396896,91
396904,40
396912,-7
396920,-41
396928,-55
396936,-55
396943,-47
396951,-63
396959,-114
396967,-189
396975,-248
396982,-273
396990,-265
396998,-239
397006,-206
397014,-179
397021,-157
397029,-142
397037,-122
397045,-110
397053,-101
397061,-98
397068,-94
397076,-85
397084,-73
397092,-61
397100,-61
397107,-64
397115,-68
397123,-66
397131,-71
397139,-75
397146,-62
397154,-37
397162,-20
397170,-27
397178,-46
397186,-64
397193,-73
397201,-61
397209,-18
397217,10
397225,-10
397232,-80
397240,-146
397248,-164
397256,-143
397264,-116
397271,-107
397279,-118
397287,-97
397295,-73
397303,-81
397311,-146
397318,-213
397326,175
397334,1233
397342,2009
397350,1302
397357,-613
397365,-2071
397373,-1941
397381,-808
397389,1
397396,92
397404,12
397412,34
397420,46
397428,48
397436,73
397443,80
397451,79
397459,83
397467,94
397475,120
397482,149
397490,169
397498,180
397506,170
397514,125
397521,53
397529,-26
397537,-87
397545,-110
397553,-116
397561,-137
397568,-182
397576,-230
397584,-258
397592,-264
397600,-249
397607,-223
397615,-192
397623,-169
397631,-150
397639,-126
397646,-107
397654,-94
397662,-85
397670,-71
397678,-69
397686,-96
397693,-97
397701,-43
397709,21
397717,14
397725,-59
397732,-111
397740,-96
397748,-64
397756,-71
397764,-101
397771,-99
397779,-78
397787,-70
397795,-87
397803,-107
397811,-99
397818,-52
397826,1
397834,13
397842,-19
397850,-72
397857,-103
397865,-106
397873,-84
397881,-65
397889,-69
397896,-56
397904,-41
397912,-50
397920,-96
397928,-187
397936,17
397943,925
397951,1903
397959,1637
397967,-80
397975,-1818
397982,-2120
397990,-1132
397998,-161
398006,76
398014,-2
398021,30
398029,61
398037,51
398045,49
398053,51
398061,64
398068,76
398076,84
398084,98
398092,117
398100,127
398107,127
398115,120
398123,108
398131,73
398139,8
398146,-73
398154,-133
398162,-153
398170,-146
398178,-148
398186,-183
398193,-229
398201,-260
398209,-271
398217,-255
398225,-219
398232,-168
398240,-126
398248,-95
398256,-86
398264,-94
398271,-111
398279,-115
398287,-103
398295,-76
398303,-55
398311,-53
398318,-63
398326,-66
398334,-67
398342,-65
398350,-72
398357,-80
398365,-79
398373,-71
398381,-70
398389,-70
398396,-71
398404,-61
398412,-48
398420,-49
398428,-68
398436,-92
398443,-88
398451,-53
398459,2
398467,30
398475,11
398482,-46
398490,-89
398498,-102
398506,-93
398514,-76
398521,-79
398529,-73
398537,-42
398545,-26
398553,-52
398561,-153
398568,-179
398576,399
398584,1534
398592,2027
398600,927
398607,-1028
398615,-2116
398623,-1647
398631,-555
398639,-16
398646,-45
398654,-80
398662,-28
398670,-8
398678,12
398686,25
398693,20
398701,20
398709,42
398717,67
398725,88
398732,94
398740,104
398748,117
398756,104
398764,64
398771,8
398779,-47
398787,-88
398795,-118
398803,-142
398811,-154
398818,-160
398826,-177
398834,-217
398842,-252
398850,-251
398857,-222
398865,-186
398873,-156
398881,-144
398889,-142
398896,-139
398904,-126
398912,-96
398920,-68
398928,-59
398936,-60
398943,-63
398951,-74
398959,-80
398967,-61
398975,-42
398982,-46
398990,-70
398998,-109
399006,-111
399014,-68
399021,-27
399029,-26
399037,-59
399045,-94
399053,-91
399061,-61
399068,-50
399076,-63
399084,-72
399092,-64
399100,-43
399107,-10
399115,6
399123,-21
399131,-66
399139,-105
399146,-114
399154,-107
399162,-92
399170,-75
399178,-66
399186,-43
399193,-47
399201,-84
399209,-137
399217,-216
399225,48
399232,1036
399240,2026
399248,1676
399256,-190
399264,-2022
399271,-2310
399279,-1235
399287,-191
399295,77
399303,7
399311,22
399318,64
399326,76
399334,79
399342,66
399350,69
399357,101
399365,114
399373,84
399381,82
399389,141
399396,198
399404,201
399412,168
399420,120
399428,55
399436,-50
399443,-131
399451,-136
399459,-106
399467,-121
399475,-195
399482,-288
399490,-369
399498,-379
399506,-325
399514,-261
399521,-216
399529,-184
399537,-145
399545,-135
399553,-138
399561,-100
399568,-33
399576,-7
399584,-55
399592,-111
399600,-89
399607,-37
399615,-38
399623,-96
399631,-119
399639,-94
399646,-66
399654,-62
399662,-69
399670,-63
399678,-32
399686,-25
399693,-36
399701,-42
399709,-40
399717,-47
399725,-67
399732,-107
399740,-119
399748,-98
399756,-88
399764,-107
399771,-115
399779,-99
399787,-55
399795,3
399803,15
399811,-55
399818,-214
399826,-66
399834,892
399842,2092
399850,2066
399857,298
399865,-1853
399873,-2613
399881,-1743
399889,-493
399896,101
399904,206
399912,259
399920,268
399928,205
399936,144
399943,129
399951,146
399959,146
399967,100
399975,75
399982,87
399990,115
399998,146
400006,163
400014,142
400021,95
400029,24
400037,-70
400045,-152
400053,-195
400061,-208
400068,-221
400076,-263
400084,-318
400092,-363
400100,-392
400107,-403
400115,-359
400123,-264
400131,-172
400139,-98
400146,-54
400154,-22
400162,-17
400170,-43
400178,-75
400186,-109
400193,-113
400201,-85
400209,-43
400217,-18
400225,-48
400232,-129
400240,-193
400248,-174
400256,-94
400264,-43
400271,-63
400279,-126
400287,-190
400295,-199
400303,-131
400311,-22
400318,51
400326,49
400334,21
400342,-19
400350,-81
400357,-134
400365,-137
400373,-90
400381,-59
400389,-79
400396,-112
400404,-99
400412,-14
400420,42
400428,-7
400436,-137
400443,-240
400451,181
400459,1435
400467,2537
400475,1929
400482,-414
400490,-2530
400498,-2706
400506,-1321
400514,-64
400521,235
400529,118
400537,84
400545,71
400553,57
400561,108
400568,173
400576,182
400584,141
400592,87
400600,73
400607,133
400615,187
400623,178
400631,163
400639,206
400646,234
400654,151
400662,-15
400670,-166
400678,-216
400686,-214
400693,-233
400701,-264
400709,-315
400717,-350
400725,-344
400732,-314
400740,-287
400748,-255
400756,-209
400764,-176
400771,-129
400779,-52
400787,-15
400795,-3
400803,-2
400811,-8
400818,-25
400826,-47
400834,-56
400842,-55
400850,-47
400857,-32
400865,-30
400873,-48
400881,-116
400889,-137
400896,-59
400904,3
400912,-48
400920,-124
400928,-98
400936,6
400943,59
400951,12
400959,-58
400967,-57
400975,-19
400982,-7
400990,-29
400998,-88
401006,-115
401014,-73
401021,-38
401029,-45
401037,-34
401045,-14
401053,-29
401061,-111
401068,-53
401076,685
401084,1915
401092,2242
401100,765
401107,-1472
401115,-2575
401123,-1906
401131,-590
401139,56
401146,37
401154,26
401162,121
401170,148
401178,104
401186,24
401193,-10
401201,81
401209,189
401217,199
401225,119
401232,51
401240,103
401248,248
401256,318
401264,246
401271,133
401279,37
401287,-42
401295,-115
401303,-191
401311,-259
401318,-285
401326,-281
401334,-299
401342,-360
401350,-412
401357,-371
401365,-245
401373,-172
401381,-208
401389,-233
401396,-166
401404,-58
401412,-1
401420,-4
401428,-26
401436,-52
401443,-66
401451,-26
401459,-5
401467,-58
401475,-111
401482,-101
401490,-40
401498,1
401506,-54
401514,-122
401521,-119
401529,-64
401537,-42
401545,-74
401553,-112
401561,-75
401568,3
401576,17
401584,-29
401592,-78
401600,-98
401607,-72
401615,-32
401623,-15
401631,-12
401639,-50
401646,-82
401654,-78
401662,-74
401670,-91
401678,-100
401686,-112
401693,-115
401701,-74
401709,1
401717,4
401725,-54
401732,-141
401740,-68
401748,626
401756,1776
401764,2091
401771,678
401779,-1535
401787,-2605
401795,-1831
401803,-423
401811,188
401818,58
401826,-29
401834,65
401842,112
401850,93
401857,32
401865,10
401873,79
401881,160
401889,162
401896,106
401904,57
401912,107
401920,222
401928,242
401936,160
401943,78
401951,49
401959,18
401967,-80
401975,-214
401982,-295
401990,-291
401998,-257
402006,-286
402014,-352
402021,-397
402029,-364
402037,-286
402045,-235
402053,-217
402061,-183
402068,-108
402076,-59
402084,-73
402092,-90
402100,-71
402107,-75
402115,-128
402123,-160
402131,-132
402139,-57
402146,-20
402154,-35
402162,-46
402170,-57
402178,-94
402186,-119
402193,-111
402201,-95
402209,-81
402217,-81
402225,-66
402232,-9
402240,-13
402248,-99
402256,-143
402264,-111
402271,-32
402279,17
402287,-39
402295,-113
402303,-93
402311,-7
402318,35
402326,-15
402334,-65
402342,-15
402350,51
402357,-11
402365,-173
402373,-242
402381,-152
402389,-61
402396,-68
402404,-74
402412,-11
402420,10
402428,-69
402436,-152
402443,-130
402451,304
402459,1268
402467,1963
402475,1316
402482,-561
402490,-2173
402498,-2202
402506,-1043
402514,-75
402521,165
402529,132
402537,149
402545,78
402553,-68
402561,-104
402568,4
402576,143
402584,185
402592,116
402600,35
402607,37
402615,140
402623,260
402631,255
402639,129
402646,27
402654,-13
402662,-57
402670,-120
402678,-149
402686,-156
402693,-198
402701,-250
402709,-279
402717,-294
402725,-334
402732,-387
402740,-354
402748,-244
402756,-168
402764,-137
402771,-112
402779,-99
402787,-99
402795,-70
402803,-14
402811,1
402818,-66
402826,-153
402834,-173
402842,-87
402850,-11
402857,-6
402865,-53
402873,-116
402881,-135
402889,-103
402896,-40
402904,-3
402912,-42
402920,-111
402928,-145
402936,-97
402943,-20
402951,10
402959,-31
402967,-87
402975,-88
402982,-42
402990,-36
402998,-30
403006,-20
403014,-35
403021,-54
403029,-72
403037,-55
403045,12
403053,16
403061,-55
403068,-75
403076,-9
403084,34
403092,-4
403100,-101
403107,-168
403115,-152
403123,-115
403131,-84
403139,-1
403146,46
403154,-24
403162,-138
403170,-52
403178,639
403186,1688
403193,1846
403201,411
403209,-1564
403217,-2327
403225,-1483
403232,-230
403240,267
403248,98
403256,-28
403264,32
403271,81
403279,81
403287,47
403295,31
403303,75
403311,121
403318,134
403326,143
403334,147
403342,126
403350,103
403357,90
403365,64
403373,41
403381,34
403389,35
403396,-10
403404,-143
403412,-285
403420,-318
403428,-267
403436,-230
403443,-224
403451,-230
403459,-271
403467,-300
403475,-262
403482,-184
403490,-95
403498,-49
403506,-86
403514,-137
403521,-126
403529,-87
403537,-83
403545,-84
403553,-44
403561,-12
403568,-54
403576,-128
403584,-127
403592,-70
403600,-55
403607,-90
403615,-98
403623,-45
403631,-30
403639,-104
403646,-147
403654,-104
403662,-42
403670,5
403678,-8
403686,-82
403693,-131
403701,-116
403709,-78
403717,-47
403725,-26
403732,-10
403740,4
403748,5
403756,0
403764,9
403771,-8
403779,-81
403787,-153
403795,-168
403803,-130
403811,-48
403818,-3
403826,-37
403834,-75
403842,-59
403850,-25
403857,-88
403865,-107
403873,483
403881,1566
403889,1880
403896,581
403904,-1380
403912,-2250
403920,-1525
403928,-296
403936,296
403943,244
403951,121
403959,70
403967,39
403975,87
403982,153
403990,162
403998,127
404006,113
404014,119
404021,130
404029,136
404037,165
404045,211
404053,223
404061,163
404068,71
404076,5
404084,-59
404092,-102
404100,-91
404107,-64
404115,-87
404123,-171
404131,-262
404139,-293
404146,-268
404154,-239
404162,-212
404170,-170
404178,-132
404186,-119
404193,-107
404201,-94
404209,-79
404217,-50
404225,-25
404232,-19
404240,-42
404248,-85
404256,-97
404264,-55
404271,-9
404279,-5
404287,-31
404295,-69
404303,-99
404311,-97
404318,-67
404326,-25
404334,-9
404342,-29
404350,-49
404357,-37
404365,-31
404373,-44
404381,-51
404389,-43
404396,-28
404404,-34
404412,-60
404420,-70
404428,-49
404436,-18
404443,-1
404451,-17
404459,-77
404467,-141
404475,-161
404482,-129
404490,-78
404498,-65
404506,-70
404514,-71
404521,-47
404529,-35
404537,-124
404545,39
404553,898
404561,1840
404568,1557
404576,-160
404584,-1906
404592,-2205
404600,-1183
404607,-142
404615,164
404623,113
404631,91
404639,75
404646,69
404654,83
404662,83
404670,78
404678,57
404686,32
404693,42
404701,70
404709,86
404717,102
404725,119
404732,128
404740,92
404748,22
404756,-44
404764,-70
404771,-91
404779,-131
404787,-161
404795,-172
404803,-194
404811,-249
404818,-308
404826,-330
404834,-292
404842,-219
404850,-161
404857,-127
404865,-114
404873,-111
404881,-102
404889,-82
404896,-64
404904,-66
404912,-94
404920,-120
404928,-106
404936,-64
404943,-49
404951,-78
404959,-98
404967,-90
404975,-78
404982,-73
404990,-55
404998,-19
405006,-14
405014,-64
405021,-112
405029,-106
405037,-78
405045,-55
405053,-61
405061,-90
405068,-112
405076,-125
405084,-128
405092,-126
405100,-103
405107,-80
405115,-55
405123,-30
405131,-34
405139,-99
405146,-275
405154,-156
405162,844
405170,2117
405178,2090
405186,248
405193,-1915
405201,-2571
405209,-1606
405217,-394
405225,87
405232,99
405240,103
405248,98
405256,88
405264,103
405271,110
405279,105
405287,96
405295,79
405303,90
405311,120
405318,148
405326,164
405334,165
405342,154
405350,112
405357,16
405365,-100
405373,-185
405381,-201
405389,-194
405396,-213
405404,-269
405412,-330
405420,-357
405428,-350
405436,-325
405443,-287
405451,-236
405459,-175
405467,-123
405475,-103
405482,-95
405490,-87
405498,-72
405506,-63
405514,-53
405521,-52
405529,-65
405537,-87
405545,-106
405553,-108
405561,-95
405568,-78
405576,-65
405584,-66
405592,-69
405600,-58
405607,-42
405615,-46
405623,-51
405631,-35
405639,3
405646,28
405654,12
405662,-46
405670,-98
405678,-123
405686,-108
405693,-78
405701,-79
405709,-96
405717,-65
405725,-32
405732,-53
405740,-183
405748,-307
405756,179
405764,1468
405771,2393
405779,1591
405787,-575
405795,-2221
405803,-2125
405811,-980
405818,-176
405826,-61
405834,-74
405842,-6
405850,14
405857,1
405865,6
405873,22
405881,47
405889,61
405896,66
405904,79
405912,89
405920,102
405928,116
405936,128
405943,120
405951,76
405959,-2
405967,-88
405975,-145
405982,-164
405990,-173
405998,-187
406006,-217
406014,-245
406021,-256
406029,-245
406037,-226
406045,-205
406053,-174
406061,-142
406068,-109
406076,-78
406084,-63
406092,-62
406100,-69
406107,-74
406115,-81
406123,-83
406131,-84
406139,-81
406146,-74
406154,-66
406162,-59
406170,-55
406178,-70
406186,-94
406193,-105
406201,-91
406209,-51
406217,1
406225,26
406232,13
406240,-35
406248,-89
406256,-112
406264,-93
406271,-67
406279,-56
406287,-60
406295,-49
406303,-17
406311,-15
406318,-73
406326,-214
406334,-125
406342,673
406350,1757
406357,1838
406365,396
406373,-1414
406381,-2045
406389,-1320
406396,-372
406404,-37
406412,-77
406420,-52
406428,-2
406436,7
406443,23
406451,39
406459,53
406467,62
406475,72
406482,79
406490,78
406498,87
406506,115
406514,140
406521,137
406529,96
406537,21
406545,-53
406553,-108
406561,-126
406568,-122
406576,-126
406584,-164
406592,-218
406600,-253
406607,-244
406615,-214
406623,-191
406631,-186
406639,-163
406646,-117
406654,-80
406662,-74
406670,-83
406678,-80
406686,-65
406693,-59
406701,-73
406709,-92
406717,-104
406725,-111
406732,-113
406740,-109
406748,-94
406756,-80
406764,-77
406771,-80
406779,-67
406787,-25
406795,13
406803,10
406811,-32
406818,-74
406826,-87
406834,-80
406842,-71
406850,-69
406857,-80
406865,-63
406873,-30
406881,-44
406889,-116
406896,-238
406904,-76
406912,871
406920,2107
406928,2150
406936,432
406943,-1710
406951,-2479
406959,-1632
406967,-471
406975,-24
406982,-42
406990,-13
406998,34
407006,36
407014,48
407021,60
407029,64
407037,69
407045,81
407053,107
407061,135
407068,156
407076,165
407084,166
407092,153
407100,121
407107,57
407115,-26
407123,-112
407131,-182
407139,-218
407146,-242
407154,-262
407162,-287
407170,-305
407178,-308
407186,-292
407193,-251
407201,-202
407209,-151
407217,-114
407225,-92
407232,-81
407240,-68
407248,-54
407256,-42
407264,-46
407271,-64
407279,-81
407287,-74
407295,-55
407303,-48
407311,-59
407318,-84
407326,-98
407334,-79
407342,-40
407350,5
407357,7
407365,-43
407373,-99
407381,-115
407389,-93
407396,-67
407404,-62
407412,-72
407420,-40
407428,17
407436,14
407443,-61
407451,-183
407459,-4
407467,944
407475,2085
407482,2003
407490,256
407498,-1768
407506,-2377
407514,-1474
407521,-370
407529,13
407537,-21
407545,6
407553,37
407561,25
407568,33
407576,62
407584,84
407592,83
407600,80
407607,101
407615,131
407623,152
407631,165
407639,187
407646,188
407654,133
407662,38
407670,-49
407678,-102
407686,-140
407693,-180
407701,-224
407709,-262
407717,-281
407725,-283
407732,-274
407740,-256
407748,-217
407756,-161
407764,-120
407771,-96
407779,-83
407787,-70
407795,-63
407803,-70
407811,-78
407818,-80
407826,-80
407834,-80
407842,-76
407850,-77
407857,-92
407865,-109
407873,-112
407881,-84
407889,-43
407896,-6
407904,-13
407912,-58
407920,-113
407928,-129
407936,-112
407943,-83
407951,-72
407959,-67
407967,-52
407975,-24
407982,-37
407990,-81
407998,-182
408006,-73
408014,708
408021,1780
408029,1865
408037,410
408045,-1444
408053,-2114
408061,-1385
408068,-397
408076,-39
408084,-84
408092,-61
408100,-10
408107,-6
408115,8
408123,27
408131,44
408139,53
408146,53
408154,61
408162,81
408170,97
408178,106
408186,113
408193,115
408201,93
408209,37
408217,-39
408225,-108
408232,-140
408240,-149
408248,-162
408256,-201
408264,-253
408271,-290
408279,-281
408287,-250
408295,-206
408303,-174
408311,-141
408318,-114
408326,-91
408334,-80
408342,-77
408350,-83
408357,-89
408365,-95
408373,-95
408381,-100
408389,-105
408396,-101
408404,-84
408412,-74
408420,-82
408428,-93
408436,-88
408443,-63
408451,-33
408459,-17
408467,-21
408475,-39
408482,-66
408490,-83
408498,-88
408506,-81
408514,-77
408521,-73
408529,-44
408537,-7
408545,-17
408553,-81
408561,-207
408568,-43
408576,908
408584,2117
408592,2080
408600,283
408607,-1841
408615,-2488
408623,-1527
408631,-359
408639,24
408646,-44
408654,-23
408662,37
408670,44
408678,57
408686,71
408693,80
408701,83
408709,72
408717,82
408725,115
408732,159
408740,185
408748,195
408756,188
408764,147
408771,62
408779,-40
408787,-112
408795,-132
408803,-149
408811,-202
408818,-275
408826,-323
408834,-323
408842,-304
408850,-276
408857,-242
408865,-198
408873,-159
408881,-120
408889,-95
408896,-84
408904,-81
408912,-68
408920,-39
408928,-19
408936,-30
408943,-65
408951,-87
408959,-70
408967,-35
408975,-22
408982,-38
408990,-63
408998,-78
409006,-75
409014,-51
409021,-15
409029,4
409037,-11
409045,-53
409053,-89
409061,-101
409068,-92
409076,-71
409084,-55
409092,-66
409100,-57
409107,-13
409115,3
409123,-61
409131,-209
409139,-38
409146,974
409154,2199
409162,2123
409170,305
409178,-1776
409186,-2384
409193,-1459
409201,-363
409209,-8
409217,-62
409225,-39
409232,-3
409240,-4
409248,10
409256,30
409264,51
409271,74
409279,91
409287,105
409295,114
409303,127
409311,146
409318,158
409326,146
409334,107
409342,47
409350,-27
409357,-91
409365,-138
409373,-173
409381,-207
409389,-243
409396,-274
409404,-286
409412,-276
409420,-251
409428,-225
409436,-184
409443,-146
409451,-111
409459,-89
409467,-72
409475,-63
409482,-60
409490,-66
409498,-71
409506,-74
409514,-83
409521,-93
409529,-89
409537,-81
409545,-73
409553,-69
409561,-75
409568,-99
409576,-114
409584,-112
409592,-75
409600,-24
409607,19
409615,15
409623,-33
409631,-92
409639,-127
409646,-119
409654,-86
409662,-57
409670,-60
409678,-61
409686,-46
409693,-42
409701,-70
409709,-181
409717,-152
409725,574
409732,1769
409740,2107
409748,757
409756,-1292
409764,-2265
409771,-1648
409779,-535
409787,-24
409795,-28
409803,-15
409811,38
409818,36
409826,34
409834,40
409842,40
409850,38
409857,33
409865,42
409873,66
409881,93
409889,124
409896,148
409904,151
409912,123
409920,63
409928,-10
409936,-76
409943,-125
409951,-161
409959,-196
409967,-227
409975,-255
409982,-277
409990,-287
409998,-274
410006,-239
410014,-200
410021,-172
410029,-144
410037,-115
410045,-92
410053,-86
410061,-86
410068,-85
410076,-83
410084,-76
410092,-76
410100,-83
410107,-92
410115,-104
410123,-117
410131,-117
410139,-103
410146,-83
410154,-72
410162,-70
410170,-72
410178,-67
410186,-65
410193,-61
410201,-54
410209,-54
410217,-54
410225,-65
410232,-80
410240,-84
410248,-66
410256,-32
410264,7
410271,25
410279,7
410287,-42
410295,-82
410303,-91
410311,-69
410318,-45
410326,-44
410334,-54
410342,-33
410350,-27
410357,-51
410365,-129
410373,-132
410381,490
410389,1782
410396,2465
410404,1318
410412,-1015
410420,-2539
410428,-2198
410436,-906
410443,-99
410451,-26
410459,-53
410467,18
410475,47
410482,55
410490,67
410498,75
410506,94
410514,100
410521,100
410529,117
410537,160
410545,198
410553,207
410561,194
410568,178
410576,144
410584,80
410592,-7
410600,-88
410607,-146
410615,-193
410623,-236
410631,-269
410639,-293
410646,-302
410654,-304
410662,-279
410670,-239
410678,-199
410686,-169
410693,-142
410701,-108
410709,-82
410717,-68
410725,-57
410732,-50
410740,-46
410748,-49
410756,-45
410764,-30
410771,-34
410779,-61
410787,-81
410795,-80
410803,-66
410811,-55
410818,-58
410826,-64
410834,-70
410842,-61
410850,-45
410857,-37
410865,-58
410873,-87
410881,-78
410889,-22
410896,40
410904,64
410912,27
410920,-34
410928,-90
410936,-117
410943,-111
410951,-95
410959,-76
410967,-69
410975,-70
410982,-38
410990,-14
410998,-43
411006,-156
411014,-260
411021,225
411029,1534
411037,2520
411045,1759
411053,-473
411061,-2273
411068,-2302
411076,-1157
411084,-284
411092,-128
411100,-139
411107,-46
411115,5
411123,22
411131,37
411139,45
411146,56
411154,73
411162,98
411170,115
411178,131
411186,147
411193,172
411201,192
411209,188
411217,147
411225,72
411232,-1
411240,-58
411248,-102
411256,-155
411264,-215
411271,-263
411279,-292
411287,-298
411295,-282
411303,-257
411311,-233
411318,-223
411326,-210
411334,-188
411342,-153
411350,-114
411357,-84
411365,-61
411373,-57
411381,-52
411389,-48
411396,-53
411404,-66
411412,-65
411420,-58
411428,-60
411436,-72
411443,-87
411451,-84
411459,-76
411467,-70
411475,-75
411482,-74
411490,-71
411498,-63
411506,-58
411514,-58
411521,-60
411529,-60
411537,-54
411545,-48
411553,-54
411561,-59
411568,-61
411576,-50
411584,-42
411592,-51
411600,-70
411607,-78
411615,-52
411623,-3
411631,29
411639,37
411646,15
411654,-35
411662,-91
411670,-120
411678,-117
411686,-90
411693,-72
411701,-80
411709,-77
411717,-49
411725,-55
411732,-82
411740,-155
411748,-90
411756,649
411764,1871
411771,2235
411779,846
411787,-1339
411795,-2450
411803,-1846
411811,-633
411818,-45
411826,-51
411834,-63
411842,-13
411850,-9
411857,6
411865,28
411873,48
411881,66
411889,76
411896,95
411904,111
411912,118
411920,128
411928,154
411936,191
411943,205
411951,173
411959,100
411967,12
411975,-64
411982,-115
411990,-161
411998,-220
412006,-284
412014,-328
412021,-344
412029,-339
412037,-316
412045,-287
412053,-254
412061,-210
412068,-168
412076,-135
412084,-116
412092,-103
412100,-91
412107,-81
412115,-80
412123,-83
412131,-84
412139,-76
412146,-68
412154,-59
412162,-61
412170,-76
412178,-91
412186,-93
412193,-82
412201,-79
412209,-85
412217,-85
412225,-75
412232,-64
412240,-61
412248,-63
412256,-64
412264,-62
412271,-61
412279,-56
412287,-60
412295,-71
412303,-68
412311,-51
412318,-34
412326,-37
412334,-69
412342,-101
412350,-89
412357,-38
412365,11
412373,30
412381,12
412389,-30
412396,-77
412404,-113
412412,-127
412420,-112
412428,-88
412436,-81
412443,-86
412451,-50
412459,-11
412467,-36
412475,-147
412482,-249
412490,234
412498,1576
412506,2654
412514,1923
412521,-440
412529,-2455
412537,-2585
412545,-1336
412553,-272
412561,-24
412568,-48
412576,7
412584,42
412592,51
412600,67
412607,67
412615,68
412623,82
412631,90
412639,99
412646,107
412654,117
412662,131
412670,150
412678,169
412686,164
412693,119
412701,30
412709,-76
412717,-161
412725,-209
412732,-242
412740,-268
412748,-291
412756,-301
412764,-293
412771,-274
412779,-254
412787,-230
412795,-207
412803,-167
412811,-126
412818,-85
412826,-61
412834,-47
412842,-34
412850,-20
412857,-15
412865,-15
412873,-30
412881,-49
412889,-66
412896,-71
412904,-69
412912,-69
412920,-72
412928,-81
412936,-80
412943,-72
412951,-64
412959,-60
412967,-60
412975,-59
412982,-55
412990,-58
412998,-62
413006,-60
413014,-48
413021,-35
413029,-32
413037,-30
413045,-31
413053,-39
413061,-48
413068,-54
413076,-45
413084,-27
413092,-26
413100,-47
413107,-81
413115,-94
413123,-61
413131,-5
413139,22
413146,21
413154,-2
413162,-48
413170,-97
413178,-124
413186,-109
413193,-67
413201,-42
413209,-52
413217,-42
413225,-28
413232,-44
413240,-92
413248,-164
413256,135
413264,1193
413271,2220
413279,1821
413287,-136
413295,-2034
413303,-2337
413311,-1278
413318,-269
413326,-29
413334,-77
413342,-13
413350,41
413357,42
413365,39
413373,36
413381,48
413389,64
413396,79
413404,94
413412,103
413420,113
413428,131
413436,154
413443,172
413451,169
413459,125
413467,55
413475,-22
413482,-86
413490,-136
413498,-176
413506,-215
413514,-253
413521,-286
413529,-309
413537,-307
413545,-284
413553,-254
413561,-218
413568,-175
413576,-142
413584,-115
413592,-99
413600,-89
413607,-78
413615,-67
413623,-59
413631,-58
413639,-58
413646,-56
413654,-57
413662,-66
413670,-77
413678,-84
413686,-76
413693,-72
413701,-84
413709,-95
413717,-100
413725,-85
413732,-71
413740,-64
413748,-59
413756,-52
413764,-45
413771,-40
413779,-46
413787,-49
413795,-54
413803,-57
413811,-59
413818,-59
413826,-60
413834,-57
413842,-54
413850,-61
413857,-63
413865,-63
413873,-60
413881,-64
413889,-88
413896,-95
413904,-73
413912,-28
413920,17
413928,29
413936,-5
413943,-61
413951,-104
413959,-115
413967,-99
413975,-73
413982,-75
413990,-74
413998,-50
414006,-58
414014,-91
414021,-187
414029,-116
414037,709
414045,2063
414053,2470
414061,967
414068,-1401
414076,-2617
414084,-2016
414092,-769
414100,-158
414107,-140
414115,-105
414123,-8
414131,24
414139,42
414146,51
414154,49
414162,56
414170,72
414178,88
414186,99
414193,108
414201,129
414209,165
414217,194
414225,193
414232,160
414240,111
414248,40
414256,-50
414264,-139
414271,-210
414279,-250
414287,-271
414295,-292
414303,-310
414311,-311
414318,-290
414326,-254
414334,-220
414342,-194
414350,-167
414357,-123
414365,-71
414373,-36
414381,-22
414389,-21
414396,-16
414404,-8
414412,-9
414420,-33
414428,-53
414436,-58
414443,-65
414451,-69
414459,-72
414467,-69
414475,-79
414482,-100
414490,-104
414498,-83
414506,-65
414514,-70
414521,-79
414529,-71
414537,-55
414545,-47
414553,-53
414561,-61
414568,-70
414576,-73
414584,-66
414592,-47
414600,-40
414607,-46
414615,-60
414623,-67
414631,-77
414639,-87
414646,-83
414654,-57
414662,-25
414670,-3
414678,-7
414686,-38
414693,-81
414701,-104
414709,-101
414717,-76
414725,-62
414732,-82
414740,-83
414748,-43
414756,-35
414764,-72
414771,-145
414779,-30
414787,710
414795,1775
414803,1962
414811,611
414818,-1306
414826,-2172
414834,-1577
414842,-542
414850,-85
414857,-102
414865,-91
414873,-14
414881,24
414889,40
414896,34
414904,19
414912,25
414920,42
414928,57
414936,66
414943,83
414951,108
414959,134
414967,144
414975,135
414982,111
414990,71
414998,24
415006,-21
415014,-62
415021,-113
415029,-170
415037,-219
415045,-252
415053,-284
415061,-300
415068,-294
415076,-271
415084,-229
415092,-172
415100,-113
415107,-77
415115,-71
415123,-72
415131,-73
415139,-66
415146,-60
415154,-42
415162,-22
415170,-28
415178,-50
415186,-65
415193,-67
415201,-72
415209,-90
415217,-103
415225,-99
415232,-89
415240,-82
415248,-76
415256,-75
415264,-73
415271,-69
415279,-56
415287,-41
415295,-50
415303,-74
415311,-76
415318,-57
415326,-54
415334,-64
415342,-67
415350,-52
415357,-41
415365,-64
415373,-94
415381,-79
415389,-39
415396,3
415404,18
415412,-1
415420,-42
415428,-81
415436,-92
415443,-84
415451,-62
415459,-64
415467,-71
415475,-46
415482,-25
415490,-45
415498,-110
415506,-134
415514,298
415521,1298
415529,1956
415537,1219
415545,-601
415553,-1970
415561,-1878
415568,-879
415576,-154
415584,-43
415592,-73
415600,-25
415607,-5
415615,-4
415623,17
415631,30
415639,34
415646,33
415654,44
415662,66
415670,87
415678,94
415686,104
415693,129
415701,155
415709,158
415717,122
415725,51
415732,-23
415740,-88
415748,-131
415756,-168
415764,-205
415771,-237
415779,-260
415787,-273
415795,-279
415803,-276
415811,-240
415818,-190
415826,-156
415834,-147
415842,-129
415850,-91
415857,-58
415865,-42
415873,-47
415881,-64
415889,-74
415896,-76
415904,-71
415912,-64
415920,-70
415928,-90
415936,-104
415943,-102
415951,-78
415959,-60
415967,-53
415975,-60
415982,-60
415990,-56
415998,-61
416006,-69
416014,-66
416021,-52
416029,-54
416037,-62
416045,-64
416053,-61
416061,-62
416068,-65
416076,-61
416084,-48
416092,-51
416100,-73
416107,-77
416115,-48
416123,-8
416131,6
416139,-15
416146,-58
416154,-93
416162,-110
416170,-106
416178,-90
416186,-78
416193,-66
416201,-30
416209,-36
416217,-82
416225,-170
416232,-91
416240,689
416248,1995
416256,2464
416264,1081
416271,-1252
416279,-2570
416287,-2081
416295,-838
416303,-157
416311,-116
416318,-113
416326,-34
416334,-6
416342,2
416350,20
416357,32
416365,53
416373,65
416381,73
416389,89
416396,114
416404,143
416412,171
416420,190
416428,195
416436,174
416443,122
416451,48
416459,-29
416467,-104
416475,-166
416482,-225
416490,-274
416498,-311
416506,-326
416514,-322
416521,-302
416529,-272
416537,-235
416545,-199
416553,-157
416561,-119
416568,-89
416576,-66
416584,-53
416592,-41
416600,-36
416607,-43
416615,-45
416623,-45
416631,-50
416639,-58
416646,-70
416654,-81
416662,-81
416670,-80
416678,-79
416686,-81
416693,-79
416701,-72
416709,-65
416717,-64
416725,-59
416732,-50
416740,-44
416748,-48
416756,-55
416764,-62
416771,-72
416779,-84
416787,-69
416795,-36
416803,6
416811,25
416818,7
416826,-39
416834,-83
416842,-105
416850,-102
416857,-82
416865,-71
416873,-74
416881,-45
416889,-28
416896,-51
416904,-116
416912,-146
416920,316
416928,1426
416936,2178
416943,1385
416951,-624
416959,-2143
416967,-2048
416975,-955
416982,-172
416990,-72
416998,-109
417006,-40
417014,2
417021,13
417029,22
417037,34
417045,47
417053,53
417061,60
417068,64
417076,78
417084,96
417092,118
417100,138
417107,152
417115,139
417123,98
417131,34
417139,-29
417146,-86
417154,-134
417162,-183
417170,-231
417178,-270
417186,-295
417193,-302
417201,-288
417209,-261
417217,-227
417225,-186
417232,-145
417240,-108
417248,-87
417256,-75
417264,-75
417271,-73
417279,-67
417287,-65
417295,-69
417303,-77
417311,-82
417318,-81
417326,-77
417334,-80
417342,-81
417350,-81
417357,-72
417365,-66
417373,-65
417381,-69
417389,-72
417396,-67
417404,-61
417412,-59
417420,-61
417428,-65
417436,-61
417443,-59
417451,-62
417459,-67
417467,-66
417475,-57
417482,-46
417490,-45
417498,-53
417506,-58
417514,-60
417521,-58
417529,-54
417537,-51
417545,-48
417553,-46
417561,-45
417568,-48
417576,-50
417584,-58
417592,-69
417600,-74
417607,-65
417615,-36
417623,-1
417631,7
417639,-19
417646,-58
417654,-88
417662,-106
417670,-95
417678,-69
417686,-58
417693,-39
417701,-24
417709,-50
417717,-96
417725,-155
417732,93
417740,1072
417748,2182
417756,2008
417764,192
417771,-1843
417779,-2422
417787,-1518
417795,-444
417803,-87
417811,-122
417818,-82
417826,-29
417834,-17
417842,14
417850,41
417857,56
417865,61
417873,64
417881,71
417889,82
417896,104
417904,136
417912,163
417920,175
417928,163
417936,130
417943,79
417951,4
417959,-67
417967,-120
417975,-151
417982,-175
417990,-213
417998,-263
418006,-300
418014,-316
418021,-305
418029,-271
418037,-235
418045,-205
418053,-167
418061,-121
418068,-83
418076,-67
418084,-74
418092,-83
418100,-81
418107,-80
418115,-82
418123,-79
418131,-61
418139,-55
418146,-60
418154,-81
418162,-91
418170,-86
418178,-84
418186,-77
418193,-60
418201,-49
418209,-52
418217,-60
418225,-55
418232,-43
418240,-39
418248,-49
418256,-52
418264,-44
418271,-44
418279,-41
418287,-33
418295,-26
418303,-32
418311,-43
418318,-47
418326,-42
418334,-43
418342,-50
418350,-59
418357,-58
418365,-31
418373,1
418381,16
418389,-12
418396,-62
418404,-100
418412,-101
418420,-74
418428,-62
418436,-69
418443,-58
418451,-25
418459,-36
418467,-99
418475,-193
418482,16
418490,995
418498,2202
418506,2187
418514,430
418521,-1705
418529,-2448
418537,-1610
418545,-497
418553,-100
418561,-140
418568,-104
418576,-29
418584,-9
418592,13
418600,28
418607,39
418615,53
418623,60
418631,69
418639,86
418646,105
418654,126
418662,146
418670,160
418678,155
418686,130
418693,76
418701,7
418709,-60
418717,-110
418725,-157
418732,-199
418740,-238
418748,-265
418756,-277
418764,-281
418771,-278
418779,-260
418787,-222
418795,-170
418803,-133
418811,-105
418818,-98
418826,-91
418834,-77
418842,-67
418850,-65
418857,-65
418865,-68
418873,-77
418881,-89
418889,-89
418896,-74
418904,-60
418912,-66
418920,-84
418928,-82
418936,-77
418943,-80
418951,-86
418959,-83
418967,-72
418975,-62
418982,-57
418990,-60
418998,-68
419006,-75
419014,-67
419021,-48
419029,-38
419037,-51
419045,-66
419053,-71
419061,-65
419068,-55
419076,-38
419084,-43
419092,-74
419100,-115
419107,-117
419115,-61
419123,16
419131,37
419139,-11
419146,-91
419154,-138
419162,-130
419170,-95
419178,-81
419186,-90
419193,-63
419201,-4
419209,-3
419217,-71
419225,-205
419232,-89
419240,808
419248,2083
419256,2289
419264,688
419271,-1522
419279,-2478
419287,-1758
419295,-602
419303,-118
419311,-131
419318,-107
419326,-51
419334,-38
419342,-19
419350,10
419357,36
419365,53
419373,64
419381,79
419389,89
419396,102
419404,123
419412,158
419420,197
419428,204
419436,170
419443,96
419451,8
419459,-74
419467,-140
419475,-190
419482,-233
419490,-262
419498,-285
419506,-314
419514,-330
419521,-326
419529,-284
419537,-230
419545,-186
419553,-153
419561,-124
419568,-94
419576,-76
419584,-67
419592,-57
419600,-52
419607,-48
419615,-54
419623,-69
419631,-79
419639,-74
419646,-58
419654,-48
419662,-54
419670,-67
419678,-72
419686,-71
419693,-75
419701,-72
419709,-61
419717,-51
419725,-49
419732,-56
419740,-65
419748,-65
419756,-55
419764,-48
419771,-44
419779,-36
419787,-34
419795,-41
419803,-47
419811,-46
419818,-43
419826,-43
419834,-49
419842,-33
419850,-3
419857,-2
419865,-45
419873,-89
419881,-96
419889,-71
419896,-47
419904,-48
419912,-50
419920,-24
419928,-15
419936,-63
419943,-181
419951,-167
419959,533
419967,1788
419975,2288
419982,1032
419990,-1152
419998,-2402
420006,-1940
420014,-737
420021,-52
420029,9
420037,-7
420045,34
420053,37
420061,44
420068,51
420076,56
420084,68
420092,83
420100,98
420107,110
420115,119
420123,139
420131,171
420139,190
420146,176
420154,120
420162,42
420170,-31
420178,-99
420186,-155
420193,-188
420201,-198
420209,-207
420217,-235
420225,-259
420232,-265
420240,-250
420248,-229
420256,-205
420264,-178
420271,-141
420279,-95
420287,-61
420295,-54
420303,-58
420311,-59
420318,-50
420326,-48
420334,-53
420342,-58
420350,-58
420357,-65
420365,-77
420373,-84
420381,-87
420389,-93
420396,-93
420404,-85
420412,-66
420420,-52
420428,-49
420436,-56
420443,-65
420451,-68
420459,-69
420467,-68
420475,-63
420482,-56
420490,-54
420498,-59
420506,-62
420514,-54
420521,-35
420529,-14
420537,-1
420545,-8
420553,-35
420561,-64
420568,-80
420576,-88
420584,-70
420592,-59
420600,-61
420607,-39
420615,-26
420623,-67
420631,-168
420639,-229
420646,233
420654,1388
420662,2223
420670,1486
420678,-535
420686,-2125
420693,-2099
420701,-998
420709,-157
420717,-26
420725,-74
420732,-25
420740,14
420748,28
420756,40
420764,35
420771,33
420779,51
420787,78
420795,96
420803,99
420811,105
420818,127
420826,154
420834,154
420842,119
420850,61
420857,-6
420865,-77
420873,-132
420881,-167
420889,-182
420896,-198
420904,-226
420912,-258
420920,-272
420928,-261
420936,-232
420943,-198
420951,-161
420959,-127
420967,-101
420975,-87
420982,-80
420990,-72
420998,-64
421006,-63
421014,-65
421021,-68
421029,-68
421037,-69
421045,-66
421053,-71
421061,-79
421068,-92
421076,-92
421084,-85
421092,-74
421100,-72
421107,-72
421115,-68
421123,-62
421131,-59
421139,-61
421146,-66
421154,-67
421162,-63
421170,-59
421178,-56
421186,-56
421193,-62
421201,-77
421209,-86
421217,-68
421225,-32
421232,4
421240,8
421248,-25
421256,-75
421264,-108
421271,-106
421279,-86
421287,-74
421295,-77
421303,-56
421311,-19
421318,-30
421326,-113
421334,-238
421342,-47
421350,889
421357,1975
421365,1872
421373,225
421381,-1629
421389,-2144
421396,-1309
421404,-355
421412,-70
421420,-126
421428,-82
421436,-19
421443,-3
421451,13
421459,23
421467,36
421475,44
421482,50
421490,61
421498,68
421506,72
421514,86
421521,101
421529,102
421537,80
421545,44
421553,-3
421561,-58
421568,-108
421576,-141
421584,-153
421592,-157
421600,-175
421607,-203
421615,-234
421623,-250
421631,-245
421639,-220
421646,-183
421654,-148
421662,-124
421670,-106
421678,-102
421686,-97
421693,-93
421701,-82
421709,-81
421717,-79
421725,-82
421732,-78
421740,-82
421748,-79
421756,-77
421764,-76
421771,-77
421779,-76
421787,-79
421795,-77
421803,-71
421811,-67
421818,-62
421826,-54
421834,-50
421842,-48
421850,-48
421857,-50
421865,-54
421873,-58
421881,-62
421889,-65
421896,-75
421904,-68
421912,-42
421920,1
421928,24
421936,8
421943,-41
421951,-86
421959,-107
421967,-100
421975,-79
421982,-63
421990,-64
421998,-44
422006,-25
422014,-48
422021,-150
422029,-259
422037,105
422045,1200
422053,2085
422061,1501
422068,-403
422076,-1998
422084,-2043
422092,-1002
422100,-167
422107,-17
422115,-61
422123,-15
422131,23
422139,24
422146,21
422154,27
422162,53
422170,82
422178,90
422186,91
422193,94
422201,97
422209,106
422217,122
422225,127
422232,104
422240,45
422248,-28
422256,-87
422264,-116
422271,-128
422279,-140
422287,-178
422295,-226
422303,-261
422311,-276
422318,-280
422326,-270
422334,-239
422342,-195
422350,-159
422357,-143
422365,-124
422373,-99
422381,-94
422389,-100
422396,-109
422404,-101
422412,-94
422420,-92
422428,-93
422436,-83
422443,-72
422451,-69
422459,-72
422467,-75
422475,-77
422482,-75
422490,-68
422498,-64
422506,-65
422514,-68
422521,-65
422529,-61
422537,-59
422545,-61
422553,-73
422561,-84
422568,-81
422576,-56
422584,-22
422592,-9
422600,-37
422607,-81
422615,-102
422623,-96
422631,-84
422639,-76
422646,-77
422654,-46
422662,2
422670,0
422678,-82
422686,-232
422693,-105
422701,772
422709,1913
422717,1961
422725,413
422732,-1495
422740,-2146
422748,-1376
422756,-366
422764,-3
422771,-39
422779,-14
422787,36
422795,39
422803,36
422811,31
422818,33
422826,47
422834,65
422842,76
422850,82
422857,89
422865,101
422873,115
422881,122
422889,102
422896,50
422904,-22
422912,-89
422920,-136
422928,-156
422936,-164
422943,-176
422951,-196
422959,-218
422967,-226
422975,-219
422982,-200
422990,-169
422998,-141
423006,-115
423014,-98
423021,-84
423029,-79
423037,-76
423045,-74
423053,-66
423061,-56
423068,-55
423076,-66
423084,-81
423092,-86
423100,-82
423107,-78
423115,-83
423123,-82
423131,-74
423139,-69
423146,-70
423154,-66
423162,-54
423170,-39
423178,-43
423186,-60
423193,-77
423201,-75
423209,-47
423217,4
423225,34
423232,19
423240,-34
423248,-81
423256,-88
423264,-71
423271,-51
423279,-51
423287,-62
423295,-47
423303,-26
423311,-38
423318,-132
423326,-243
423334,107
423342,1150
423350,1968
423357,1366
423365,-445
423373,-1884
423381,-1852
423389,-865
423396,-135
423404,-35
423412,-68
423420,-8
423428,20
423436,25
423443,35
423451,45
423459,54
423467,54
423475,58
423482,69
423490,83
423498,97
423506,108
423514,110
423521,102
423529,81
423537,41
423545,-17
423553,-76
423561,-119
423568,-132
423576,-135
423584,-146
423592,-179
423600,-202
423607,-212
423615,-212
423623,-206
423631,-188
423639,-155
423646,-126
423654,-113
423662,-111
423670,-94
423678,-75
423686,-76
423693,-96
423701,-106
423709,-98
423717,-88
423725,-88
423732,-88
423740,-86
423748,-92
423756,-98
423764,-96
423771,-79
423779,-65
423787,-67
423795,-76
423803,-85
423811,-87
423818,-86
423826,-76
423834,-66
423842,-57
423850,-44
423857,-17
423865,3
423873,-5
423881,-42
423889,-81
423896,-93
423904,-83
423912,-57
423920,-37
423928,-41
423936,-22
423943,-10
423951,-35
423959,-112
423967,-211
423975,85
423982,1130
423990,2157
423998,1793
424006,-95
424014,-1960
424021,-2293
424029,-1286
424037,-283
424045,6
424053,-30
424061,4
424068,32
424076,33
424084,43
424092,49
424100,53
424107,56
424115,62
424123,79
424131,104
424139,130
424146,150
424154,156
424162,141
424170,100
424178,38
424186,-32
424193,-100
424201,-157
424209,-193
424217,-204
424225,-211
424232,-230
424240,-254
424248,-259
424256,-241
424264,-208
424271,-185
424279,-164
424287,-133
424295,-93
424303,-58
424311,-45
424318,-55
424326,-72
424334,-76
424342,-71
424350,-70
424357,-77
424365,-89
424373,-93
424381,-88
424389,-85
424396,-85
424404,-81
424412,-76
424420,-72
424428,-70
424436,-61
424443,-56
424451,-59
424459,-64
424467,-59
424475,-30
424482,9
424490,15
424498,-16
424506,-64
424514,-85
424521,-81
424529,-61
424537,-53
424545,-60
424553,-45
424561,-16
424568,-22
424576,-92
424584,-241
424592,-120
424600,795
424607,2004
424615,2062
424623,409
424631,-1641
424639,-2343
424646,-1516
424654,-426
424662,-32
424670,-65
424678,-41
424686,8
424693,8
424701,22
424709,39
424717,55
424725,62
424732,71
424740,72
424748,75
424756,82
424764,105
424771,133
424779,146
424787,119
424795,62
424803,-10
424811,-70
424818,-121
424826,-151
424834,-175
424842,-195
424850,-220
424857,-243
424865,-254
424873,-256
424881,-237
424889,-196
424896,-152
424904,-118
424912,-106
424920,-98
424928,-85
424936,-80
424943,-78
424951,-73
424959,-65
424967,-64
424975,-70
424982,-79
424990,-79
424998,-76
425006,-78
425014,-79
425021,-75
425029,-74
425037,-73
425045,-72
425053,-68
425061,-62
425068,-68
425076,-76
425084,-87
425092,-92
425100,-82
425107,-51
425115,-7
425123,18
425131,-1
425139,-54
425146,-99
425154,-113
425162,-100
425170,-83
425178,-70
425186,-66
425193,-41
425201,-13
425209,-24
425217,-102
425225,-210
425232,56
425240,1017
425248,1942
425256,1584
425264,-142
425271,-1779
425279,-2010
425287,-1087
425295,-231
425303,-36
425311,-76
425318,-25
425326,19
425334,21
425342,27
425350,32
425357,45
425365,63
425373,72
425381,78
425389,83
425396,94
425404,117
425412,142
425420,144
425428,109
425436,50
425443,-7
425451,-56
425459,-99
425467,-132
425475,-150
425482,-163
425490,-189
425498,-238
425506,-286
425514,-302
425521,-279
425529,-232
425537,-184
425545,-145
425553,-123
425561,-116
425568,-107
425576,-92
425584,-77
425592,-72
425600,-81
425607,-91
425615,-102
425623,-109
425631,-101
425639,-77
425646,-58
425654,-69
425662,-99
425670,-105
425678,-85
425686,-57
425693,-56
425701,-70
425709,-83
425717,-80
425725,-65
425732,-46
425740,-39
425748,-56
425756,-78
425764,-70
425771,-37
425779,8
425787,28
425795,9
425803,-48
425811,-104
425818,-128
425826,-115
425834,-80
425842,-56
425850,-61
425857,-40
425865,-27
425873,-55
425881,-129
425889,-189
425896,212
425904,1354
425912,2326
425920,1758
425928,-313
425936,-2181
425943,-2376
425951,-1259
425959,-247
425967,9
425975,-26
425982,21
425990,56
425998,40
426006,28
426014,26
426021,45
426029,69
426037,84
426045,94
426053,109
426061,131
426068,155
426076,171
426084,169
426092,137
426100,72
426107,-12
426115,-96
426123,-158
426131,-188
426139,-199
426146,-221
426154,-245
426162,-262
426170,-268
426178,-269
426186,-257
426193,-219
426201,-164
426209,-115
426217,-86
426225,-69
426232,-57
426240,-58
426248,-61
426256,-61
426264,-61
426271,-64
426279,-66
426287,-63
426295,-64
426303,-68
426311,-71
426318,-73
426326,-73
426334,-75
426342,-74
426350,-71
426357,-71
426365,-68
426373,-59
426381,-48
426389,-42
426396,-54
426404,-73
426412,-80
426420,-61
426428,-28
426436,2
426443,11
426451,-4
426459,-52
426467,-99
426475,-115
426482,-104
426490,-74
426498,-64
426506,-74
426514,-55
426521,-40
426529,-61
426537,-138
426545,-178
426553,308
426561,1432
426568,2131
426576,1258
426584,-752
426592,-2170
426600,-1969
426607,-845
426615,-102
426623,-30
426631,-73
426639,-16
426646,14
426654,14
426662,22
426670,30
426678,48
426686,64
426693,71
426701,66
426709,63
426717,71
426725,104
426732,130
426740,136
426748,103
426756,47
426764,-15
426771,-71
426779,-127
426787,-174
426795,-211
426803,-232
426811,-248
426818,-254
426826,-257
426834,-257
426842,-249
426850,-219
426857,-173
426865,-132
426873,-105
426881,-91
426889,-80
426896,-71
426904,-68
426912,-68
426920,-70
426928,-71
426936,-72
426943,-77
426951,-79
426959,-79
426967,-79
426975,-75
426982,-75
426990,-73
426998,-75
427006,-80
427014,-89
427021,-84
427029,-75
427037,-63
427045,-59
427053,-59
427061,-60
427068,-56
427076,-49
427084,-42
427092,-38
427100,-43
427107,-54
427115,-60
427123,-66
427131,-76
427139,-93
427146,-88
427154,-53
427162,-3
427170,17
427178,-16
427186,-72
427193,-103
427201,-102
427209,-90
427217,-80
427225,-76
427232,-65
427240,-27
427248,-26
427256,-71
427264,-166
427271,-192
427279,388
427287,1648
427295,2381
427303,1362
427311,-871
427318,-2413
427326,-2186
427334,-991
427342,-202
427350,-93
427357,-85
427365,-2
427373,22
427381,25
427389,41
427396,57
427404,71
427412,74
427420,70
427428,86
427436,124
427443,169
427451,193
427459,198
427467,177
427475,141
427482,83
427490,-2
427498,-80
427506,-141
427514,-182
427521,-202
427529,-228
427537,-259
427545,-288
427553,-305
427561,-300
427568,-285
427576,-252
427584,-205
427592,-152
427600,-114
427607,-89
427615,-69
427623,-56
427631,-47
427639,-41
427646,-46
427654,-54
427662,-65
427670,-65
427678,-55
427686,-53
427693,-65
427701,-76
427709,-75
427717,-66
427725,-66
427732,-63
427740,-63
427748,-62
427756,-65
427764,-62
427771,-51
427779,-39
427787,-42
427795,-52
427803,-51
427811,-43
427818,-35
427826,-36
427834,-44
427842,-48
427850,-49
427857,-44
427865,-25
427873,10
427881,37
427889,28
427896,-29
427904,-95
427912,-122
427920,-106
427928,-78
427936,-66
427943,-70
427951,-42
427959,-4
427967,-25
427975,-98
427982,-193
427990,93
427998,1131
428006,2195
428014,1874
428021,-28
428029,-1952
428037,-2328
428045,-1316
428053,-287
428061,-18
428068,-79
428076,-39
428084,21
428092,37
428100,58
428107,63
428115,65
428123,74
428131,78
428139,80
428146,94
428154,113
428162,137
428170,152
428178,154
428186,135
428193,84
428201,9
428209,-66
428217,-121
428225,-149
428232,-181
428240,-220
428248,-263
428256,-292
428264,-295
428271,-278
428279,-251
428287,-229
428295,-194
428303,-145
428311,-102
428318,-79
428326,-77
428334,-81
428342,-76
428350,-70
428357,-60
428365,-56
428373,-56
428381,-56
428389,-58
428396,-65
428404,-78
428412,-92
428420,-93
428428,-84
428436,-74
428443,-66
428451,-66
428459,-70
428467,-69
428475,-61
428482,-54
428490,-60
428498,-70
428506,-80
428514,-82
428521,-73
428529,-64
428537,-52
428545,-51
428553,-59
428561,-69
428568,-66
428576,-56
428584,-56
428592,-65
428600,-74
428607,-77
428615,-83
428623,-93
428631,-87
428639,-56
428646,-13
428654,14
428662,-4
428670,-60
428678,-109
428686,-123
428693,-106
428701,-90
428709,-82
428717,-93
428725,-71
428732,-41
428740,-42
428748,-101
428756,-215
428764,22
428771,1032
428779,2112
428787,1855
428795,17
428803,-1891
428811,-2310
428818,-1351
428826,-350
428834,-66
428842,-107
428850,-55
428857,9
428865,29
428873,40
428881,40
428889,49
428896,71
428904,91
428912,100
428920,109
428928,118
428936,134
428943,147
428951,153
428959,146
428967,113
428975,51
428982,-39
428990,-116
428998,-158
429006,-177
429014,-203
429021,-232
429029,-249
429037,-248
429045,-257
429053,-267
429061,-262
429068,-237
429076,-191
429084,-145
429092,-101
429100,-68
429107,-49
429115,-50
429123,-51
429131,-49
429139,-50
429146,-61
429154,-85
429162,-102
429170,-96
429178,-85
429186,-86
429193,-89
429201,-85
429209,-71
429217,-60
429225,-57
429232,-63
429240,-67
429248,-61
429256,-53
429264,-57
429271,-69
429279,-68
429287,-53
429295,-33
429303,-33
429311,-47
429318,-54
429326,-47
429334,-38
429342,-28
429350,-27
429357,-37
429365,-50
429373,-51
429381,-50
429389,-53
429396,-65
429404,-58
429412,-28
429420,8
429428,28
429436,12
429443,-43
429451,-94
429459,-114
429467,-100
429475,-69
429482,-45
429490,-49
429498,-45
429506,-25
429514,-41
429521,-99
429529,-199
429537,32
429545,1052
429553,2197
429561,2002
429568,152
429576,-1864
429584,-2377
429592,-1420
429600,-363
429607,-48
429615,-93
429623,-35
429631,43
429639,72
429646,82
429654,61
429662,52
429670,59
429678,65
429686,73
429693,104
429701,160
429709,206
429717,195
429725,145
429732,106
429740,76
429748,33
429756,-23
429764,-82
429771,-134
429779,-192
429787,-243
429795,-273
429803,-275
429811,-263
429818,-265
429826,-281
429834,-276
429842,-228
429850,-153
429857,-93
429865,-76
429873,-92
429881,-98
429889,-90
429896,-72
429904,-53
429912,-40
429920,-42
429928,-60
429936,-83
429943,-89
429951,-80
429959,-75
429967,-89
429975,-94
429982,-81
429990,-63
429998,-61
430006,-73
430014,-90
430021,-87
430029,-77
430037,-71
430045,-61
430053,-54
430061,-50
430068,-46
430076,-49
430084,-57
430092,-61
430100,-58
430107,-54
430115,-55
430123,-67
430131,-78
430139,-68
430146,-46
430154,-11
430162,16
430170,-7
430178,-65
430186,-106
430193,-90
430201,-61
430209,-51
430217,-63
430225,-63
430232,-18
430240,0
430248,-55
430256,-155
430264,-214
430271,242
430279,1452
430287,2430
430295,1765
430303,-432
430311,-2352
430318,-2493
430326,-1285
430334,-231
430342,16
430350,-41
430357,-3
430365,43
430373,56
430381,73
430389,77
430396,75
430404,65
430412,67
430420,104
430428,152
430436,174
430443,184
430451,203
430459,219
430467,193
430475,122
430482,45
430490,-39
430498,-127
430506,-207
430514,-257
430521,-285
430529,-317
430537,-347
430545,-362
430553,-342
430561,-304
430568,-264
430576,-232
430584,-200
430592,-158
430600,-116
430607,-86
430615,-58
430623,-40
430631,-25
430639,-22
430646,-27
430654,-38
430662,-49
430670,-58
430678,-63
430686,-67
430693,-68
430701,-65
430709,-67
430717,-82
430725,-96
430732,-89
430740,-70
430748,-77
430756,-104
430764,-120
430771,-97
430779,-42
430787,11
430795,24
430803,-3
430811,-49
430818,-88
430826,-99
430834,-78
430842,-36
430850,8
430857,21
430865,-14
430873,-74
430881,-118
430889,-125
430896,-97
430904,-71
430912,-71
430920,-48
430928,-13
430936,-21
430943,-89
430951,-147
430959,209
430967,1332
430975,2390
430982,1938
430990,-166
430998,-2234
431006,-2602
431014,-1442
431021,-265
431029,49
431037,-55
431045,-35
431053,46
431061,64
431068,31
431076,-5
431084,14
431092,67
431100,90
431107,89
431115,108
431123,153
431131,199
431139,231
431146,245
431154,214
431162,134
431170,48
431178,-22
431186,-87
431193,-152
431201,-229
431209,-296
431217,-353
431225,-394
431232,-418
431240,-405
431248,-348
431256,-281
431264,-225
431271,-181
431279,-142
431287,-102
431295,-76
431303,-70
431311,-67
431318,-63
431326,-59
431334,-47
431342,-34
431350,-34
431357,-55
431365,-72
431373,-79
431381,-81
431389,-83
431396,-84
431404,-76
431412,-74
431420,-78
431428,-83
431436,-78
431443,-73
431451,-79
431459,-86
431467,-76
431475,-48
431482,-25
431490,-27
431498,-37
431506,-40
431514,-42
431521,-49
431529,-57
431537,-70
431545,-72
431553,-54
431561,-16
431568,14
431576,1
431584,-54
431592,-105
431600,-122
431607,-108
431615,-85
431623,-72
431631,-65
431639,-29
431646,-17
431654,-60
431662,-144
431670,-119
431678,497
431686,1727
431693,2378
431701,1283
431709,-986
431717,-2520
431725,-2233
431732,-939
431740,-71
431748,30
431756,-25
431764,18
431771,38
431779,39
431787,51
431795,59
431803,65
431811,68
431818,74
431826,97
431834,125
431842,153
431850,176
431857,203
431865,220
431873,205
431881,145
431889,57
431896,-39
431904,-118
431912,-185
431920,-239
431928,-291
431936,-337
431943,-364
431951,-362
431959,-324
431967,-273
431975,-217
431982,-168
431990,-130
431998,-96
432006,-60
432014,-47
432021,-68
432029,-99
432037,-101
432045,-70
432053,-44
432061,-43
432068,-42
432076,-25
432084,-5
432092,-14
432100,-50
432107,-86
432115,-91
432123,-59
432131,-24
432139,-18
432146,-51
432154,-90
432162,-110
432170,-94
432178,-68
432186,-53
432193,-48
432201,-44
432209,-29
432217,-33
432225,-82
432232,-118
432240,-100
432248,-54
432256,-58
432264,-109
432271,-130
432279,-95
432287,-59
432295,-50
432303,-41
432311,-26
432318,-28
432326,-55
432334,-70
432342,-64
432350,-44
432357,-23
432365,-11
432373,-32
432381,-62
432389,-75
432396,-73
432404,-67
432412,-65
432420,-57
432428,-20
432436,-3
432443,-40
432451,-143
432459,-234
432467,214
432475,1499
432482,2579
432490,1942
432498,-308
432506,-2284
432514,-2463
432521,-1313
432529,-337
432537,-136
432545,-155
432553,-70
432561,-15
432568,9
432576,48
432584,67
432592,54
432600,32
432607,34
432615,67
432623,111
432631,151
432639,177
432646,180
432654,162
432662,135
432670,90
432678,26
432686,-50
432693,-110
432701,-148
432709,-176
432717,-214
432725,-254
432732,-276
432740,-285
432748,-275
432756,-255
432764,-229
432771,-192
432779,-145
432787,-119
432795,-126
432803,-130
432811,-91
432818,-36
432826,-7
432834,-22
432842,-54
432850,-74
432857,-91
432865,-95
432873,-93
432881,-93
432889,-107
432896,-89
432904,-44
432912,-32
432920,-76
432928,-130
432936,-148
432943,-127
432951,-89
432959,-69
432967,-56
432975,-51
432982,-48
432990,-36
432998,-23
433006,-25
433014,-37
433021,-38
433029,-36
433037,-23
433045,-12
433053,-13
433061,-19
433068,-28
433076,-37
433084,-40
433092,-44
433100,-59
433107,-63
433115,-50
433123,-35
433131,-45
433139,-60
433146,-53
433154,-9
433162,26
433170,16
433178,-29
433186,-73
433193,-97
433201,-100
433209,-86
433217,-77
433225,-78
433232,-49
433240,-19
433248,-39
433256,-117
433264,-202
433271,153
433279,1264
433287,2249
433295,1734
433303,-255
433311,-2054
433318,-2247
433326,-1194
433334,-263
433342,-69
433350,-123
433357,-71
433365,-20
433373,7
433381,27
433389,30
433396,36
433404,58
433412,79
433420,90
433428,89
433436,96
433443,120
433451,147
433459,155
433467,134
433475,85
433482,24
433490,-42
433498,-104
433506,-157
433514,-191
433521,-213
433529,-235
433537,-252
433545,-262
433553,-261
433561,-249
433568,-221
433576,-187
433584,-157
433592,-122
433600,-98
433607,-88
433615,-85
433623,-76
433631,-59
433639,-52
433646,-55
433654,-67
433662,-69
433670,-74
433678,-84
433686,-94
433693,-96
433701,-91
433709,-80
433717,-71
433725,-59
433732,-59
433740,-65
433748,-75
433756,-72
433764,-61
433771,-56
433779,-62
433787,-64
433795,-53
433803,-38
433811,-38
433818,-46
433826,-57
433834,-60
433842,-56
433850,-55
433857,-48
433865,-37
433873,-37
433881,-48
433889,-54
433896,-57
433904,-66
433912,-85
433920,-91
433928,-59
433936,-5
433943,22
433951,10
433959,-33
433967,-82
433975,-107
433982,-101
433990,-77
433998,-61
434006,-69
434014,-58
434021,-31
434029,-36
434037,-95
434045,-209
434053,-41
434061,855
434068,1925
434076,1858
434084,272
434092,-1545
434100,-2096
434107,-1323
434115,-403
434123,-115
434131,-153
434139,-113
434146,-54
434154,-31
434162,-8
434170,2
434178,8
434186,26
434193,44
434201,59
434209,67
434217,79
434225,91
434232,98
434240,108
434248,106
434256,78
434264,30
434271,-33
434279,-89
434287,-127
434295,-156
434303,-180
434311,-205
434318,-223
434326,-238
434334,-243
434342,-238
434350,-222
434357,-189
434365,-152
434373,-127
434381,-117
434389,-108
434396,-90
434404,-74
434412,-71
434420,-82
434428,-86
434436,-81
434443,-74
434451,-77
434459,-88
434467,-100
434475,-102
434482,-98
434490,-91
434498,-83
434506,-78
434514,-70
434521,-62
434529,-62
434537,-75
434545,-88
434553,-87
434561,-72
434568,-63
434576,-68
434584,-69
434592,-72
434600,-74
434607,-68
434615,-56
434623,-52
434631,-60
434639,-80
434646,-85
434654,-68
434662,-56
434670,-57
434678,-62
434686,-66
434693,-67
434701,-60
434709,-37
434717,-17
434725,-29
434732,-65
434740,-99
434748,-107
434756,-97
434764,-71
434771,-65
434779,-66
434787,-42
434795,-23
434803,-45
434811,-154
434818,-260
434826,179
434834,1409
434842,2382
434850,1714
434857,-407
434865,-2185
434873,-2266
434881,-1149
434889,-241
434896,-50
434904,-71
434912,-14
434920,24
434928,33
434936,49
434943,57
434951,71
434959,84
434967,91
434975,102
434982,109
434990,123
434998,145
435006,169
435014,178
435021,153
435029,91
435037,11
435045,-70
435053,-132
435061,-172
435068,-191
435076,-202
435084,-217
435092,-235
435100,-246
435107,-251
435115,-240
435123,-210
435131,-160
435139,-120
435146,-96
435154,-81
435162,-67
435170,-50
435178,-37
435186,-45
435193,-53
435201,-60
435209,-55
435217,-60
435225,-71
435232,-87
435240,-89
435248,-80
435256,-69
435264,-71
435271,-73
435279,-69
435287,-55
435295,-45
435303,-53
435311,-62
435318,-53
435326,-46
435334,-50
435342,-64
435350,-73
435357,-68
435365,-60
435373,-51
435381,-43
435389,-44
435396,-63
435404,-95
435412,-104
435420,-75
435428,-33
435436,-1
435443,1
435451,-21
435459,-56
435467,-88
435475,-98
435482,-85
435490,-63
435498,-70
435506,-73
435514,-44
435521,-42
435529,-83
435537,-188
435545,-152
435553,551
435561,1733
435568,2142
435576,911
435584,-1093
435592,-2156
435600,-1677
435607,-640
435615,-136
435623,-136
435631,-111
435639,-33
435646,-21
435654,-22
435662,-1
435670,34
435678,57
435686,55
435693,55
435701,68
435709,82
435717,87
435725,92
435732,116
435740,141
435748,143
435756,88
435764,-10
435771,-101
435779,-150
435787,-160
435795,-178
435803,-221
435811,-264
435818,-279
435826,-259
435834,-235
435842,-215
435850,-197
435857,-166
435865,-133
435873,-113
435881,-103
435889,-98
435896,-83
435904,-60
435912,-49
435920,-57
435928,-74
435936,-80
435943,-77
435951,-75
435959,-84
435967,-87
435975,-92
435982,-84
435990,-67
435998,-51
436006,-47
436014,-53
436021,-74
436029,-85
436037,-72
436045,-44
436053,-12
436061,-14
436068,-54
436076,-93
436084,-101
436092,-80
436100,-60
436107,-47
436115,-39
436123,-29
436131,-25
436139,-48
436146,-65
436154,-74
436162,-72
436170,-71
436178,-72
436186,-68
436193,-53
436201,-35
436209,-8
436217,9
436225,-8
436232,-53
436240,-95
436248,-116
436256,-119
436264,-107
436271,-98
436279,-84
436287,-40
436295,-30
436303,-80
436311,-216
436318,-271
436326,320
436334,1621
436342,2425
436350,1489
436357,-709
436365,-2292
436373,-2156
436381,-1012
436389,-219
436396,-103
436404,-117
436412,-48
436420,-10
436428,12
436436,37
436443,52
436451,61
436459,68
436467,72
436475,88
436482,115
436490,131
436498,135
436506,134
436514,138
436521,136
436529,102
436537,24
436545,-69
436553,-144
436561,-180
436568,-198
436576,-221
436584,-249
436592,-281
436600,-307
436607,-309
436615,-286
436623,-240
436631,-194
436639,-143
436646,-105
436654,-80
436662,-72
436670,-57
436678,-34
436686,-23
436693,-23
436701,-31
436709,-35
436717,-35
436725,-49
436732,-64
436740,-72
436748,-63
436756,-53
436764,-50
436771,-59
436779,-71
436787,-75
436795,-66
436803,-54
436811,-56
436818,-67
436826,-63
436834,-44
436842,-40
436850,-49
436857,-52
436865,-50
436873,-48
436881,-50
436889,-55
436896,-52
436904,-56
436912,-57
436920,-41
436928,-7
436936,25
436943,26
436951,-11
436959,-64
436967,-90
436975,-78
436982,-61
436990,-53
436998,-64
437006,-56
437014,-18
437021,-23
437029,-89
437037,-227
437045,-183
437053,584
437061,1836
437068,2238
437076,904
437084,-1207
437092,-2285
437100,-1743
437107,-643
437115,-128
437123,-139
437131,-122
437139,-34
437146,-8
437154,4
437162,15
437170,27
437178,44
437186,65
437193,82
437201,89
437209,89
437217,91
437225,116
437232,144
437240,145
437248,111
437256,53
437264,-12
437271,-74
437279,-135
437287,-191
437295,-230
437303,-251
437311,-258
437318,-259
437326,-255
437334,-246
437342,-227
437350,-196
437357,-162
437365,-123
437373,-96
437381,-82
437389,-75
437396,-63
437404,-53
437412,-59
437420,-72
437428,-78
437436,-69
437443,-57
437451,-67
437459,-83
437467,-89
437475,-70
437482,-57
437490,-58
437498,-73
437506,-84
437514,-81
437521,-66
437529,-59
437537,-53
437545,-52
437553,-60
437561,-69
437568,-69
437576,-61
437584,-51
437592,-57
437600,-70
437607,-75
437615,-81
437623,-97
437631,-123
437639,-124
437646,-86
437654,-37
437662,-7
437670,-10
437678,-33
437686,-62
437693,-78
437701,-86
437709,-83
437717,-71
437725,-61
437732,-53
437740,-19
437748,-2
437756,-30
437764,-112
437771,-185
437779,187
437787,1217
437795,2016
437803,1413
437811,-428
437818,-1964
437826,-2019
437834,-1033
437842,-241
437850,-83
437857,-104
437865,-38
437873,6
437881,19
437889,29
437896,39
437904,52
437912,57
437920,57
437928,65
437936,86
437943,117
437951,142
437959,154
437967,155
437975,139
437982,98
437990,31
437998,-47
438006,-113
438014,-150
438021,-170
438029,-200
438037,-234
438045,-258
438053,-263
438061,-258
438068,-248
438076,-226
438084,-192
438092,-157
438100,-126
438107,-88
438115,-53
438123,-46
438131,-56
438139,-59
438146,-51
438154,-51
438162,-62
438170,-77
438178,-75
438186,-78
438193,-87
438201,-88
438209,-83
438217,-75
438225,-75
438232,-76
438240,-72
438248,-70
438256,-72
438264,-73
438271,-68
438279,-63
438287,-68
438295,-73
438303,-65
438311,-49
438318,-42
438326,-45
438334,-54
438342,-58
438350,-65
438357,-75
438365,-73
438373,-53
438381,-27
438389,-15
438396,-22
438404,-45
438412,-66
438420,-70
438428,-70
438436,-61
438443,-54
438451,-44
438459,-8
438467,-2
438475,-49
438482,-133
438490,-177
438498,272
438506,1431
438514,2316
438521,1622
438529,-470
438537,-2222
438545,-2293
438553,-1169
438561,-240
438568,-44
438576,-60
438584,12
438592,51
438600,46
438607,46
438615,43
438623,49
438631,66
438639,91
438646,122
438654,149
438662,167
438670,181
438678,189
438686,178
438693,136
438701,72
438709,-2
438717,-74
438725,-131
438732,-177
438740,-218
438748,-257
438756,-283
438764,-292
438771,-283
438779,-265
438787,-251
438795,-229
438803,-194
438811,-153
438818,-107
438826,-75
438834,-64
438842,-66
438850,-65
438857,-58
438865,-49
438873,-44
438881,-42
438889,-47
438896,-61
438904,-76
438912,-87
438920,-89
438928,-92
438936,-94
438943,-93
438951,-89
438959,-82
438967,-74
438975,-67
438982,-61
438990,-61
438998,-62
439006,-60
439014,-53
439021,-50
439029,-55
439037,-61
439045,-64
439053,-61
439061,-53
439068,-31
439076,-4
439084,7
439092,-15
439100,-60
439107,-95
439115,-106
439123,-94
439131,-64
439139,-55
439146,-67
439154,-59
439162,-50
439170,-74
439178,-159
439186,-248
439193,114
439201,1253
439209,2279
439217,1809
439225,-184
439232,-2037
439240,-2293
439248,-1252
439256,-292
439264,-57
439271,-85
439279,-22
439287,14
439295,19
439303,30
439311,45
439318,60
439326,70
439334,74
439342,86
439350,104
439357,124
439365,136
439373,148
439381,145
439389,119
439396,75
439404,24
439412,-28
439420,-79
439428,-133
439436,-188
439443,-236
439451,-275
439459,-295
439467,-299
439475,-297
439482,-282
439490,-251
439498,-209
439506,-162
439514,-125
439521,-95
439529,-72
439537,-52
439545,-38
439553,-32
439561,-49
439568,-67
439576,-71
439584,-60
439592,-58
439600,-65
439607,-78
439615,-81
439623,-85
439631,-93
439639,-89
439646,-62
439654,-42
439662,-42
439670,-56
439678,-67
439686,-67
439693,-65
439701,-67
439709,-67
439717,-63
439725,-54
439732,-43
439740,-40
439748,-49
439756,-62
439764,-68
439771,-65
439779,-53
439787,-32
439795,-10
439803,7
439811,3
439818,-30
439826,-70
439834,-90
439842,-80
439850,-61
439857,-44
439865,-39
439873,-25
439881,-8
439889,-33
439896,-88
439904,-178
439912,-11
439920,921
439928,2126
439936,2153
439943,420
439951,-1736
439959,-2514
439967,-1673
439975,-512
439982,-56
439990,-73
439998,-44
440006,2
440014,2
440021,19
440029,38
440037,54
440045,58
440053,61
440061,84
440068,116
440076,142
440084,157
440092,172
440100,192
440107,194
440115,163
440123,96
440131,9
440139,-69
440146,-134
440154,-192
440162,-251
440170,-304
440178,-331
440186,-329
440193,-313
440201,-295
440209,-271
440217,-237
440225,-197
440232,-153
440240,-109
440248,-77
440256,-58
440264,-56
440271,-56
440279,-55
440287,-54
440295,-56
440303,-55
440311,-57
440318,-63
440326,-75
440334,-77
440342,-76
440350,-72
440357,-77
440365,-80
440373,-83
440381,-79
440389,-72
440396,-59
440404,-46
440412,-48
440420,-59
440428,-69
440436,-67
440443,-66
440451,-71
440459,-61
440467,-28
440475,7
440482,22
440490,-6
440498,-57
440506,-89
440514,-88
440521,-78
440529,-64
440537,-68
440545,-66
440553,-25
440561,-1
440568,-47
440576,-175
440584,-229
440592,364
440600,1673
440607,2476
440615,1499
440623,-756
440631,-2380
440639,-2217
440646,-1019
440654,-198
440662,-86
440670,-100
440678,-21
440686,19
440693,23
440701,28
440709,36
440717,48
440725,54
440732,64
440740,88
440748,114
440756,131
440764,141
440771,160
440779,182
440787,171
440795,110
440803,23
440811,-55
440818,-112
440826,-162
440834,-214
440842,-259
440850,-286
440857,-298
440865,-301
440873,-291
440881,-266
440889,-230
440896,-191
440904,-158
440912,-137
440920,-109
440928,-83
440936,-63
440943,-51
440951,-52
440959,-64
440967,-77
440975,-73
440982,-57
440990,-45
440998,-45
441006,-63
441014,-73
441021,-74
441029,-70
441037,-64
441045,-63
441053,-70
441061,-78
441068,-78
441076,-73
441084,-66
441092,-60
441100,-57
441107,-59
441115,-59
441123,-59
441131,-55
441139,-49
441146,-49
441154,-57
441162,-72
441170,-78
441178,-64
441186,-25
441193,6
441201,1
441209,-48
441217,-93
441225,-106
441232,-89
441240,-66
441248,-61
441256,-70
441264,-39
441271,-4
441279,-21
441287,-81
441295,-174
441303,31
441311,970
441318,2064
441326,1945
441334,218
441342,-1755
441350,-2330
441357,-1431
441365,-354
441373,2
441381,-47
441389,-19
441396,31
441404,36
441412,40
441420,38
441428,39
441436,49
441443,56
441451,62
441459,75
441467,95
441475,120
441482,137
441490,140
441498,132
441506,113
441514,76
441521,17
441529,-42
441537,-97
441545,-138
441553,-177
441561,-208
441568,-243
441576,-270
441584,-287
441592,-282
441600,-258
441607,-222
441615,-187
441623,-157
441631,-130
441639,-108
441646,-98
441654,-85
441662,-77
441670,-71
441678,-81
441686,-93
441693,-86
441701,-64
441709,-57
441717,-70
441725,-84
441732,-84
441740,-78
441748,-82
441756,-87
441764,-89
441771,-92
441779,-86
441787,-66
441795,-51
441803,-61
441811,-78
441818,-74
441826,-58
441834,-52
441842,-60
441850,-64
441857,-57
441865,-51
441873,-61
441881,-66
441889,-54
441896,-37
441904,-40
441912,-55
441920,-60
441928,-49
441936,-17
441943,6
441951,-3
441959,-50
441967,-91
441975,-102
441982,-86
441990,-63
441998,-53
442006,-55
442014,-28
442021,-21
442029,-53
442037,-137
442045,-191
442053,291
442061,1521
442068,2415
442076,1622
442084,-573
442092,-2323
442100,-2323
442107,-1151
442115,-237
442123,-54
442131,-71
442139,-8
442146,20
442154,26
442162,37
442170,39
442178,43
442186,57
442193,78
442201,101
442209,120
442217,140
442225,164
442232,186
442240,198
442248,180
442256,128
442264,54
442271,-20
442279,-95
442287,-155
442295,-202
442303,-249
442311,-304
442318,-346
442326,-351
442334,-326
442342,-293
442350,-264
442357,-228
442365,-175
442373,-121
442381,-81
442389,-59
442396,-52
442404,-50
442412,-49
442420,-52
442428,-57
442436,-61
442443,-64
442451,-67
442459,-59
442467,-40
442475,-19
442482,-36
442490,-94
442498,-147
442506,-139
442514,-87
442521,-57
442529,-68
442537,-92
442545,-90
442553,-61
442561,-38
442568,-38
442576,-56
442584,-78
442592,-82
442600,-58
442607,-34
442615,-39
442623,-51
442631,-56
442639,-46
442646,-22
442654,4
442662,19
442670,-3
442678,-60
442686,-94
442693,-88
442701,-64
442709,-58
442717,-73
442725,-69
442732,-18
442740,6
442748,-39
442756,-128
442764,-136
442771,407
442779,1579
442787,2273
442795,1310
442803,-847
442811,-2372
442818,-2156
442826,-940
442834,-116
442842,-18
442850,-53
442857,32
442865,76
442873,72
442881,65
442889,64
442896,72
442904,82
442912,82
442920,82
442928,92
442936,116
442943,139
442951,154
442959,160
442967,150
442975,110
442982,43
442990,-26
442998,-88
443006,-147
443014,-204
443021,-251
443029,-277
443037,-291
443045,-293
443053,-284
443061,-262
443068,-232
443076,-193
443084,-153
443092,-110
443100,-86
443107,-79
443115,-80
443123,-73
443131,-64
443139,-64
443146,-73
443154,-87
443162,-95
443170,-97
443178,-96
443186,-87
443193,-70
443201,-63
443209,-70
443217,-85
443225,-92
443232,-79
443240,-73
443248,-75
443256,-88
443264,-84
443271,-66
443279,-54
443287,-56
443295,-56
443303,-48
443311,-48
443318,-63
443326,-74
443334,-61
443342,-36
443350,-25
443357,-39
443365,-48
443373,-54
443381,-59
443389,-72
443396,-84
443404,-79
